"Jul 1, 2014",117.44,117.94,116.02,116.55,"2,793,600",116.19
"Jun 30, 2014",116.08,117.19,115.85,116.86,"2,342,000",116.50
"Jun 27, 2014",115.23,115.93,114.71,115.84,"2,801,600",115.48
"Jun 26, 2014",115.68,115.82,114.07,115.42,"2,355,100",115.06
"Jun 25, 2014",113.32,116.25,113.32,116.02,"3,456,700",115.66
"Jun 24, 2014",117.18,117.45,112.24,113.02,"4,574,300",112.67
"Jun 23, 2014",118.52,118.89,116.95,117.41,"3,328,800",117.05
"Jun 20, 2014",117.05,118.39,116.15,117.98,"5,556,100",117.62
"Jun 19, 2014",113.14,115.85,112.52,115.80,"3,865,900",115.44
"Jun 18, 2014",112.58,113.84,111.74,113.54,"2,912,400",113.19
"Jun 17, 2014",113.95,113.95,111.26,112.39,"5,247,000",112.04
"Jun 16, 2014",115.21,115.21,113.02,114.03,"4,075,200",113.68
"Jun 13, 2014",111.77,114.06,110.53,114.02,"3,126,400",113.67
"Jun 12, 2014",111.46,113.02,111.22,111.63,"3,799,500",111.29
"Jun 11, 2014",108.25,110.91,108.14,110.70,"2,683,700",110.36
"Jun 10, 2014",109.39,109.75,108.41,108.69,"2,174,200",108.36
"Jun 9, 2014",110.09,110.75,109.00,109.51,"2,366,300",109.17
"Jun 6, 2014",108.14,109.56,108.04,109.32,"2,151,400",108.98
"Jun 5, 2014",106.35,107.91,105.82,107.90,"2,212,100",107.57
"Jun 4, 2014",106.48,106.73,105.56,106.37,"1,695,600",106.04
"Jun 3, 2014",105.45,106.66,105.27,106.66,"1,974,800",106.33
"Jun 2, 2014",105.95,106.00,104.95,105.38,"1,712,400",105.06
"May 30, 2014",106.27,106.36,105.25,105.80,"2,293,300",105.47
"May 29, 2014",105.42,106.71,105.00,106.67,"2,565,500",106.34
"May 28, 2014",104.86,105.63,104.40,105.19,"2,724,800",104.87
"May 27, 2014",104.44,104.97,103.75,104.73,"2,072,500",104.41
"May 23, 2014",103.89,105.15,103.44,103.97,"2,535,000",103.65
"May 22, 2014",104.29,105.17,103.53,103.68,"2,457,100",103.36
"May 21, 2014",102.70,104.36,102.13,104.16,"1,777,500",103.84
"May 20, 2014",102.22,102.95,101.47,101.89,"1,937,500",101.58
"May 19, 2014",102.50,103.36,101.96,102.30,"1,832,600",101.98
"May 16, 2014",102.57,102.88,101.34,102.50,"2,846,300",102.18
"May 15, 2014",103.97,103.98,101.55,102.74,"2,608,100",102.42
"May 14, 2014",105.39,105.49,103.86,103.90,"2,415,000",103.58
"May 13, 2014",104.58,105.50,104.07,105.17,"3,426,300",104.85
"May 12, 2014",102.57,103.73,101.98,103.64,"3,351,800",103.32
"May 9, 2014",102.00,102.30,100.64,102.28,"3,709,500",101.96
"May 8, 2014",104.03,104.56,101.62,101.73,"3,264,300",101.42
"May 7, 2014",104.61,105.45,102.64,104.79,"5,705,400",104.47
"May 6, 2014",102.80,106.50,101.84,103.63,"8,515,800",103.31
"May 5, 2014",96.04,99.71,96.01,99.25,"4,757,400",98.94
"May 2, 2014",97.30,98.25,96.82,97.06,"3,710,900",96.76
"May 1, 2014",98.33,98.77,96.81,97.12,"4,240,100",96.82
"Apr 30, 2014",99.07,99.20,97.01,98.00,"6,297,700",97.70
"Apr 29, 2014",98.88,101.23,98.83,99.62,"4,089,100",99.31
"Apr 28, 2014",99.94,100.00,96.53,98.06,"5,112,100",97.76
"Apr 25, 2014",103.25,103.30,98.52,99.04,"7,168,000",98.73
"Apr 24, 2014",105.50,105.50,103.42,103.48,"3,716,000",103.16
"Apr 23, 2014",102.53,105.18,102.53,105.08,"3,445,700",104.76
"Apr 22, 2014",103.27,103.27,102.11,102.34,"3,332,800",102.02
"Apr 21, 2014",102.98,103.58,101.84,103.53,"2,404,700",103.21
"Apr 17, 2014",100.84,102.84,100.84,102.45,"3,253,200",102.13
"Apr 16, 2014",101.48,102.20,100.43,101.01,"3,650,900",100.70
"Apr 15, 2014",99.63,101.68,99.52,101.11,"4,695,400",100.80
"Apr 14, 2014",99.52,100.10,98.72,99.96,"3,427,800",99.65
"Apr 11, 2014",97.67,99.44,97.57,98.63,"4,581,500",98.20
"Apr 10, 2014",98.63,99.99,97.56,98.11,"4,706,000",97.68
"Apr 9, 2014",98.94,99.17,97.99,98.95,"3,826,700",98.52
"Apr 8, 2014",97.78,99.58,97.54,98.71,"3,293,600",98.28
"Apr 7, 2014",99.72,99.98,97.45,97.93,"3,146,300",97.50
"Apr 4, 2014",102.67,103.30,98.95,99.77,"4,028,600",99.34
"Apr 3, 2014",99.33,101.50,99.26,100.65,"5,219,000",100.21
"Apr 2, 2014",98.27,99.45,98.02,99.11,"2,858,000",98.68
"Apr 1, 2014",99.38,100.36,98.26,98.98,"3,422,900",98.55
"Mar 31, 2014",198.47,199.50,195.05,196.17,"8,285,600",97.66
"Mar 28, 2014",194.47,198.82,194.11,197.16,"4,051,000",98.15
"Mar 27, 2014",192.29,195.40,192.02,193.46,"3,528,200",96.31
"Mar 26, 2014",192.55,195.32,191.90,192.12,"4,117,200",95.64
"Mar 25, 2014",191.18,192.97,190.90,191.57,"3,816,400",95.37
"Mar 24, 2014",192.25,192.97,188.46,189.60,"3,461,600",94.39
"Mar 21, 2014",191.91,193.16,189.38,191.64,"5,331,800",95.40
"Mar 20, 2014",187.62,190.56,186.07,190.33,"4,022,400",94.75
"Mar 19, 2014",189.35,189.44,186.03,187.53,"3,165,000",93.36
"Mar 18, 2014",187.40,190.52,187.18,189.16,"3,166,000",94.17
"Mar 17, 2014",186.60,188.00,186.00,187.23,"2,722,400",93.21
"Mar 14, 2014",182.97,186.21,182.90,185.97,"3,178,400",92.58
"Mar 13, 2014",186.25,186.65,181.77,182.91,"3,763,800",91.06
"Mar 12, 2014",183.60,186.43,181.66,185.13,"4,087,600",92.16
"Mar 11, 2014",189.84,190.17,185.32,185.60,"4,103,200",92.40
"Mar 10, 2014",189.92,189.92,187.12,189.05,"2,759,200",94.11
"Mar 7, 2014",191.52,191.95,188.20,189.92,"3,917,200",94.55
"Mar 6, 2014",190.72,192.21,189.33,191.06,"3,450,600",95.11
"Mar 5, 2014",192.04,193.22,190.05,190.49,"3,900,800",94.83
"Mar 4, 2014",190.47,192.92,190.33,191.56,"4,265,400",95.36
"Mar 3, 2014",189.05,192.00,188.62,189.29,"5,608,400",94.23
"Feb 28, 2014",187.72,191.08,187.11,189.42,"5,076,400",94.30
"Feb 27, 2014",186.41,187.65,184.49,187.47,"3,779,600",93.33
"Feb 26, 2014",183.61,188.41,182.88,186.44,"7,214,400",92.81
"Feb 25, 2014",182.85,185.13,179.25,184.00,"7,461,200",91.60
"Feb 24, 2014",178.43,181.62,177.03,180.40,"7,053,200",89.81
"Feb 21, 2014",180.47,180.97,177.94,178.00,"5,410,800",88.61
"Feb 20, 2014",179.04,182.06,178.15,180.03,"4,512,000",89.62
"Feb 19, 2014",179.05,181.61,178.40,178.86,"3,835,000",89.04
"Feb 18, 2014",178.12,180.26,178.01,179.92,"3,654,600",89.57
"Feb 14, 2014",175.71,177.25,174.89,176.96,"2,337,600",88.10
"Feb 13, 2014",173.58,176.75,172.60,175.47,"3,432,600",87.35
"Feb 12, 2014",175.75,176.90,174.49,175.11,"2,585,000",87.17
"Feb 11, 2014",174.30,176.21,173.56,174.73,"3,298,800",86.99
"Feb 10, 2014",176.76,176.76,173.07,174.20,"3,538,200",86.72
"Feb 7, 2014",174.77,176.88,173.14,176.50,"4,170,600",87.87
"Feb 6, 2014",167.69,173.79,167.69,173.25,"5,142,200",86.25
"Feb 5, 2014",168.10,169.70,166.77,167.49,"4,293,000",83.38
"Feb 4, 2014",162.67,168.99,162.50,168.58,"6,576,800",83.92
"Feb 3, 2014",164.61,166.86,161.50,161.74,"4,528,800",80.52
"Jan 31, 2014",164.67,167.60,163.18,165.24,"2,639,600",82.26
"Jan 30, 2014",165.10,167.50,164.65,166.13,"2,263,000",82.70
"Jan 29, 2014",165.92,166.16,163.54,164.65,"3,280,400",81.97
"Jan 28, 2014",163.38,167.50,162.29,167.22,"3,292,600",83.25
"Jan 27, 2014",165.17,165.49,161.26,162.10,"3,806,000",80.70
"Jan 24, 2014",168.05,169.04,165.12,165.53,"5,645,400",82.41
"Jan 23, 2014",169.78,171.74,168.23,169.17,"4,482,800",84.22
"Jan 22, 2014",170.20,172.30,169.25,171.72,"3,588,600",85.49
"Jan 21, 2014",169.16,170.55,168.14,169.23,"3,195,000",84.25
"Jan 17, 2014",170.96,171.88,168.92,168.96,"3,325,800",84.11
"Jan 16, 2014",170.10,171.17,168.70,170.10,"3,342,400",84.68
"Jan 15, 2014",169.46,173.28,169.40,170.36,"4,088,800",84.81
"Jan 14, 2014",164.06,168.73,163.63,168.60,"3,221,800",83.84
"Jan 13, 2014",167.41,168.27,162.97,163.46,"2,672,600",81.28
"Jan 10, 2014",167.46,168.10,165.99,166.81,"2,949,800",82.95
"Jan 9, 2014",167.41,168.89,165.48,167.00,"3,539,400",83.04
"Jan 8, 2014",166.02,167.83,165.05,166.78,"2,857,800",82.94
"Jan 7, 2014",165.07,166.91,163.71,166.85,"3,286,800",82.97
"Jan 6, 2014",164.77,165.33,162.34,164.02,"3,649,200",81.56
"Jan 3, 2014",165.75,166.65,163.81,164.56,"2,693,800",81.83
"Jan 2, 2014",166.57,167.96,164.06,165.02,"2,943,400",82.06
"Dec 31, 2013",167.34,168.85,166.47,167.84,"2,109,800",83.46
"Dec 30, 2013",168.95,170.50,166.20,167.35,"2,811,400",83.22
"Dec 27, 2013",168.14,169.48,167.68,169.16,"1,685,200",84.12
"Dec 26, 2013",168.46,169.54,167.67,168.02,"1,772,200",83.55
"Dec 24, 2013",167.82,168.27,166.23,168.26,"978,200",83.67
"Dec 23, 2013",169.26,169.84,166.83,167.62,"3,028,000",83.35
"Dec 20, 2013",166.12,169.32,165.45,168.52,"6,265,800",83.80
"Dec 19, 2013",161.67,165.91,161.18,165.33,"5,073,600",82.21
"Dec 18, 2013",159.64,162.38,158.33,162.00,"5,965,400",80.56
"Dec 17, 2013",160.52,160.52,157.51,159.65,"3,471,800",79.39
"Dec 16, 2013",159.34,161.97,159.34,159.74,"4,120,200",79.43
"Dec 13, 2013",157.67,159.35,156.49,159.02,"4,488,600",79.08
"Dec 12, 2013",156.43,159.32,156.24,158.36,"3,813,000",78.75
"Dec 11, 2013",158.85,159.14,156.01,156.26,"4,240,000",77.70
"Dec 10, 2013",158.43,161.94,158.14,159.31,"4,554,400",79.22
"Dec 9, 2013",160.92,161.25,156.31,158.14,"8,547,400",78.64
"Dec 6, 2013",166.95,167.10,159.89,160.04,"7,343,200",79.58
"Dec 5, 2013",165.34,167.74,164.16,165.38,"4,473,800",82.24
"Dec 4, 2013",165.60,169.11,165.50,167.13,"3,751,400",83.11
"Dec 3, 2013",164.45,166.73,161.82,165.48,"4,163,800",82.29
"Dec 2, 2013",166.00,166.55,163.13,165.00,"3,034,400",82.05
"Nov 29, 2013",166.50,167.11,164.19,165.00,"2,248,400",82.05
"Nov 27, 2013",168.93,169.69,165.52,166.43,"3,360,200",82.76
"Nov 26, 2013",169.35,171.48,167.70,169.20,"3,180,400",84.14
"Nov 25, 2013",169.32,169.37,165.67,169.19,"3,777,800",84.13
"Nov 22, 2013",170.20,170.41,167.35,170.15,"2,536,600",84.61
"Nov 21, 2013",168.12,169.96,167.80,169.31,"3,079,200",84.19
"Nov 20, 2013",168.85,169.76,166.21,166.92,"3,010,600",83.00
"Nov 19, 2013",168.12,169.47,165.65,167.89,"3,115,400",83.49
"Nov 18, 2013",171.50,172.20,167.47,168.52,"3,032,000",83.80
"Nov 15, 2013",170.28,172.14,167.88,171.38,"4,322,400",85.22
"Nov 14, 2013",169.49,170.08,167.95,169.67,"3,690,600",84.37
"Nov 13, 2013",166.44,169.86,165.79,169.46,"4,713,200",84.27
"Nov 12, 2013",170.70,171.08,165.80,167.10,"4,579,200",83.09
"Nov 11, 2013",171.21,171.64,169.63,171.45,"3,293,200",85.26
"Nov 8, 2013",171.12,173.26,170.56,170.96,"5,577,800",85.01
"Nov 7, 2013",179.31,180.24,165.05,171.58,"9,039,000",85.32
"Nov 6, 2013",181.33,182.90,175.94,176.64,"4,666,800",87.84
"Nov 5, 2013",183.34,183.34,179.52,179.73,"3,686,200",89.37
"Nov 4, 2013",180.47,183.60,179.73,183.46,"2,737,200",91.23
"Nov 1, 2013",178.61,180.03,175.40,178.98,"3,633,200",89.00
"Oct 31, 2013",179.98,180.91,176.71,178.40,"3,954,400",88.71
"Oct 30, 2013",186.32,186.85,178.89,180.33,"3,915,000",89.67
"Oct 29, 2013",182.87,185.77,182.31,185.08,"2,861,800",92.04
"Oct 28, 2013",183.83,183.90,181.88,182.42,"1,835,000",90.71
"Oct 25, 2013",182.35,184.09,181.29,183.44,"2,583,800",91.22
"Oct 24, 2013",178.06,182.57,176.11,181.43,"4,082,000",90.22
"Oct 23, 2013",183.12,183.12,176.51,178.44,"5,441,400",88.73
"Oct 22, 2013",186.79,188.30,183.58,185.15,"3,930,000",92.07
"Oct 21, 2013",183.00,185.50,182.65,184.32,"2,405,000",91.66
"Oct 18, 2013",182.66,184.17,180.84,183.79,"4,302,000",91.39
"Oct 17, 2013",181.68,182.40,179.30,181.39,"4,643,400",90.20
"Oct 16, 2013",182.48,185.87,181.47,182.29,"4,577,200",90.65
"Oct 15, 2013",180.25,181.98,179.00,179.97,"3,037,000",89.49
"Oct 14, 2013",177.36,181.08,176.33,181.06,"2,461,200",89.94
"Oct 11, 2013",174.32,180.95,174.25,178.99,"3,899,800",88.91
"Oct 10, 2013",173.39,174.94,172.94,174.86,"3,032,600",86.86
"Oct 9, 2013",172.33,173.56,169.60,171.52,"3,839,600",85.20
"Oct 8, 2013",172.34,174.65,170.41,171.46,"3,545,000",85.17
"Oct 7, 2013",172.21,174.21,171.25,172.83,"3,423,800",85.85
"Oct 4, 2013",171.92,174.86,170.54,174.59,"3,206,400",86.73
"Oct 3, 2013",171.95,172.23,169.99,171.80,"2,515,400",85.34
"Oct 2, 2013",171.87,172.36,169.18,172.36,"2,717,600",85.62
"Oct 1, 2013",168.61,172.83,168.55,172.15,"2,809,200",85.52
"Sep 30, 2013",167.56,170.34,167.12,169.28,"2,593,800",84.09
"Sep 27, 2013",171.23,171.66,169.80,170.73,"1,660,600",84.81
"Sep 26, 2013",171.72,172.17,169.82,172.09,"1,933,600",85.49
"Sep 25, 2013",172.09,173.29,170.73,171.38,"3,507,400",85.13
"Sep 24, 2013",169.41,173.92,168.62,172.09,"4,233,600",85.49
"Sep 23, 2013",168.57,169.71,168.11,168.86,"2,652,000",83.88
"Sep 20, 2013",170.50,171.53,168.53,168.87,"3,677,400",83.89
"Sep 19, 2013",172.10,172.81,169.35,170.73,"2,122,000",84.81
"Sep 18, 2013",167.26,172.36,167.20,171.79,"2,870,200",85.34
"Sep 17, 2013",166.51,168.36,165.79,167.77,"2,069,800",83.34
"Sep 16, 2013",167.54,167.99,165.08,165.80,"2,466,600",82.36
"Sep 13, 2013",167.75,168.14,166.10,166.44,"2,089,400",82.68
"Sep 12, 2013",167.54,168.77,167.00,167.99,"3,130,200",83.45
"Sep 11, 2013",163.45,167.37,162.84,167.15,"3,613,400",83.03
"Sep 10, 2013",163.50,164.72,160.93,163.50,"3,420,600",81.22
"Sep 9, 2013",163.10,164.00,162.17,163.65,"3,747,000",81.29
"Sep 6, 2013",162.57,164.33,160.58,161.72,"3,772,400",80.34
"Sep 5, 2013",161.22,162.62,160.95,161.43,"1,967,800",80.19
"Sep 4, 2013",157.49,161.01,157.49,160.53,"2,611,800",79.74
"Sep 3, 2013",159.46,160.49,157.05,158.43,"2,207,600",78.70
"Aug 30, 2013",157.50,158.32,156.29,157.05,"2,166,200",78.02
"Aug 29, 2013",158.73,159.30,156.68,157.09,"1,990,800",78.04
"Aug 28, 2013",156.94,161.32,156.83,159.46,"3,517,800",79.21
"Aug 27, 2013",156.16,158.56,156.00,156.29,"2,267,600",77.64
"Aug 26, 2013",157.26,159.61,156.83,157.11,"2,204,200",78.05
"Aug 23, 2013",154.40,156.79,153.54,156.62,"2,084,200",77.80
"Aug 22, 2013",152.73,155.36,152.45,154.40,"1,463,000",76.70
"Aug 21, 2013",154.37,154.37,151.39,151.84,"2,361,200",75.43
"Aug 20, 2013",152.70,155.89,152.16,154.62,"2,395,400",76.81
"Aug 19, 2013",155.52,156.12,152.54,152.69,"2,752,800",75.85
"Aug 16, 2013",155.53,156.89,154.31,155.49,"2,502,000",77.24
"Aug 15, 2013",155.54,157.78,154.29,156.59,"2,551,400",77.79
"Aug 14, 2013",158.12,158.90,156.12,156.40,"2,548,200",77.69
"Aug 13, 2013",159.00,159.15,156.76,158.24,"2,282,600",78.61
"Aug 12, 2013",158.16,160.45,157.46,158.76,"4,004,400",78.86
"Aug 9, 2013",158.66,159.97,158.00,158.84,"3,664,400",78.90
"Aug 8, 2013",157.86,160.25,156.31,158.58,"4,722,600",78.78
"Aug 7, 2013",160.31,161.47,155.29,156.22,"9,410,200",77.60
"Aug 6, 2013",154.10,154.91,151.31,153.22,"4,948,800",76.11
"Aug 5, 2013",152.94,155.04,152.15,154.18,"3,574,000",76.59
"Aug 2, 2013",150.76,153.21,150.25,153.03,"2,813,200",76.02
"Aug 1, 2013",147.57,152.91,147.57,152.07,"3,991,600",75.54
"Jul 31, 2013",144.62,148.17,144.62,145.49,"3,469,400",72.27
"Jul 30, 2013",145.05,145.78,141.55,144.10,"3,268,400",71.58
"Jul 29, 2013",145.32,145.52,143.87,144.71,"1,627,400",71.89
"Jul 26, 2013",146.24,146.72,144.24,145.74,"2,974,400",72.40
"Jul 25, 2013",144.07,147.40,144.00,147.37,"3,925,000",73.21
"Jul 24, 2013",149.09,149.14,143.16,144.07,"6,075,800",71.57
"Jul 23, 2013",149.62,149.98,148.01,148.64,"3,264,600",73.84
"Jul 22, 2013",148.63,150.05,147.54,149.49,"3,240,800",74.26
"Jul 19, 2013",147.81,148.70,146.51,148.67,"2,742,200",73.85
"Jul 18, 2013",146.42,148.27,146.22,147.00,"3,070,600",73.02
"Jul 17, 2013",145.05,146.42,144.65,145.83,"2,746,000",72.44
"Jul 16, 2013",143.78,145.54,143.75,144.56,"3,735,400",71.81
"Jul 15, 2013",144.63,145.62,142.59,143.54,"3,459,200",71.30
"Jul 12, 2013",143.10,144.77,141.91,144.71,"3,772,200",71.79
"Jul 11, 2013",144.00,146.79,142.89,143.55,"5,601,400",71.22
"Jul 10, 2013",142.69,143.68,141.63,142.27,"3,534,000",70.58
"Jul 9, 2013",140.95,142.47,140.39,142.22,"3,547,400",70.56
"Jul 8, 2013",141.50,142.53,139.01,139.76,"3,429,400",69.34
"Jul 5, 2013",139.06,140.64,138.63,140.40,"2,281,000",69.65
"Jul 3, 2013",138.00,138.50,136.81,138.18,"1,707,400",68.55
"Jul 2, 2013",135.24,139.27,135.24,137.88,"4,339,200",68.40
"Jul 1, 2013",133.79,136.43,133.24,135.31,"3,230,400",67.13
"Jun 28, 2013",130.43,132.99,130.02,131.68,"3,424,400",65.33
"Jun 27, 2013",133.16,134.08,130.72,131.01,"3,610,800",65.00
"Jun 26, 2013",131.19,132.55,129.53,131.85,"2,504,600",65.41
"Jun 25, 2013",129.02,131.10,128.22,130.15,"3,441,000",64.57
"Jun 24, 2013",128.89,129.46,124.53,127.41,"3,962,200",63.21
"Jun 21, 2013",132.24,132.40,128.57,130.40,"4,786,600",64.69
"Jun 20, 2013",133.72,133.89,129.79,130.99,"4,397,600",64.99
"Jun 19, 2013",134.97,137.99,134.78,135.59,"3,409,000",67.27
"Jun 18, 2013",133.50,135.96,133.14,135.02,"2,800,400",66.98
"Jun 17, 2013",133.20,134.34,132.16,133.33,"2,379,400",66.15
"Jun 14, 2013",133.61,133.61,131.13,131.74,"2,687,800",65.36
"Jun 13, 2013",129.68,133.50,129.35,133.33,"3,135,000",66.15
"Jun 12, 2013",131.26,131.77,129.48,129.63,"2,709,400",64.31
"Jun 11, 2013",129.29,130.32,128.24,129.11,"2,794,600",64.05
"Jun 10, 2013",132.33,132.60,131.15,131.62,"1,533,600",65.30
"Jun 7, 2013",131.10,133.65,130.20,132.68,"2,235,600",65.82
"Jun 6, 2013",128.91,130.65,127.52,130.64,"2,992,600",64.81
"Jun 5, 2013",131.66,131.97,128.49,128.52,"2,890,800",63.76
"Jun 4, 2013",131.47,132.64,130.33,132.16,"3,553,000",65.57
"Jun 3, 2013",130.15,132.13,129.72,131.75,"2,904,200",65.36
"May 31, 2013",131.73,132.60,129.09,129.10,"3,438,200",64.05
"May 30, 2013",132.33,133.94,130.90,132.69,"2,435,200",65.83
"May 29, 2013",130.34,133.42,130.12,132.83,"3,149,600",65.90
"May 28, 2013",132.46,133.25,129.51,131.12,"3,505,800",65.05
"May 24, 2013",129.73,130.95,128.63,130.83,"2,411,000",64.91
"May 23, 2013",128.97,131.64,128.23,131.40,"3,610,600",65.19
"May 22, 2013",134.16,135.53,129.82,130.93,"4,040,000",64.96
"May 21, 2013",135.78,136.27,134.05,134.28,"2,490,200",66.62
"May 20, 2013",135.37,137.15,134.87,135.61,"4,074,400",67.28
"May 17, 2013",133.80,135.89,133.51,135.25,"5,239,200",67.10
"May 16, 2013",134.51,134.92,132.74,133.22,"3,958,800",66.09
"May 15, 2013",136.49,137.64,134.05,134.69,"4,216,200",66.82
"May 14, 2013",134.00,136.97,133.82,136.67,"3,957,800",67.80
"May 13, 2013",132.82,134.54,132.31,133.66,"3,208,800",66.31
"May 10, 2013",135.49,135.49,131.70,133.58,"4,896,400",66.27
"May 9, 2013",138.81,139.00,135.53,136.08,"5,611,400",67.51
"May 8, 2013",136.04,138.78,135.92,137.90,"6,426,200",68.41
"May 7, 2013",133.79,137.96,132.96,135.69,"10,445,000",67.32
"May 6, 2013",124.60,126.73,123.26,126.04,"5,604,800",62.53
"May 3, 2013",121.40,124.20,121.40,123.98,"4,339,000",61.51
"May 2, 2013",119.25,120.26,118.00,119.67,"3,080,400",59.37
"May 1, 2013",120.39,120.39,117.76,118.83,"3,678,600",58.95
"Apr 30, 2013",121.80,122.74,120.59,121.16,"3,567,800",60.11
"Apr 29, 2013",120.50,122.72,119.88,121.93,"2,326,800",60.49
"Apr 26, 2013",121.70,121.91,119.00,119.12,"4,676,200",59.10
"Apr 25, 2013",120.16,123.53,119.36,121.86,"4,523,000",60.46
"Apr 24, 2013",117.04,120.45,117.00,119.93,"3,838,000",59.50
"Apr 23, 2013",116.90,117.38,115.27,117.00,"4,435,600",58.04
"Apr 22, 2013",113.95,116.82,113.51,116.40,"4,329,000",57.75
"Apr 19, 2013",116.16,116.28,112.93,113.44,"4,954,200",56.28
"Apr 18, 2013",115.39,115.96,112.05,115.31,"6,903,800",57.21
"Apr 17, 2013",117.41,117.86,113.46,114.82,"6,131,200",56.96
"Apr 16, 2013",117.83,119.64,115.82,119.15,"4,537,000",59.11
"Apr 15, 2013",122.36,122.37,116.13,116.19,"5,775,400",57.64
"Apr 12, 2013",127.30,127.80,124.01,124.13,"4,050,600",61.58
"Apr 11, 2013",129.01,129.66,127.72,128.26,"2,956,800",63.54
"Apr 10, 2013",128.56,130.20,128.48,128.62,"2,723,000",63.72
"Apr 9, 2013",127.07,129.21,126.20,128.25,"2,289,400",63.53
"Apr 8, 2013",124.89,127.22,124.53,126.89,"2,525,200",62.86
"Apr 5, 2013",121.00,124.87,120.76,124.75,"4,256,400",61.80
"Apr 4, 2013",126.07,126.07,122.63,122.86,"4,745,800",60.86
"Apr 3, 2013",129.05,129.42,125.75,126.10,"3,335,400",62.47
"Apr 2, 2013",128.80,130.05,128.04,129.05,"3,105,200",63.93
"Apr 1, 2013",128.07,128.83,126.63,128.51,"2,257,400",63.66
"Mar 28, 2013",128.17,129.15,127.43,128.07,"3,039,400",63.44
"Mar 27, 2013",127.89,128.67,126.19,128.20,"3,713,800",63.51
"Mar 26, 2013",124.48,129.39,124.37,128.90,"4,865,200",63.85
"Mar 25, 2013",125.77,126.80,123.03,123.92,"3,087,000",61.39
"Mar 22, 2013",124.44,125.07,123.62,124.98,"2,790,400",61.91
"Mar 21, 2013",125.27,126.85,123.85,123.90,"4,030,200",61.38
"Mar 20, 2013",128.36,128.80,126.17,126.24,"3,784,800",62.54
"Mar 19, 2013",129.10,129.52,126.71,127.27,"2,513,600",63.05
"Mar 18, 2013",128.91,130.42,128.32,128.93,"2,773,400",63.87
"Mar 15, 2013",131.47,132.84,130.41,130.42,"4,972,200",64.61
"Mar 14, 2013",130.49,132.01,130.27,131.83,"2,847,800",65.31
"Mar 13, 2013",130.00,131.18,129.49,129.88,"2,634,800",64.34
"Mar 12, 2013",129.50,130.40,129.12,130.08,"2,585,600",64.44
"Mar 11, 2013",128.33,129.37,127.41,128.66,"2,084,000",63.74
"Mar 8, 2013",128.19,128.92,127.49,128.68,"2,449,200",63.75
"Mar 7, 2013",125.75,128.23,125.37,127.56,"2,442,600",63.19
"Mar 6, 2013",125.18,125.95,124.32,125.60,"4,088,800",62.22
"Mar 5, 2013",123.08,125.05,122.42,124.70,"3,915,600",61.77
"Mar 4, 2013",122.78,122.88,121.00,121.79,"3,752,200",60.33
"Mar 1, 2013",124.64,125.35,122.23,123.00,"5,727,000",60.93
"Feb 28, 2013",126.44,127.96,125.60,125.71,"4,326,200",62.27
"Feb 27, 2013",123.11,127.13,122.77,126.92,"4,719,000",62.87
"Feb 26, 2013",122.37,123.85,120.76,123.50,"3,928,600",61.18
"Feb 25, 2013",125.67,126.96,121.65,121.77,"5,190,600",60.32
"Feb 22, 2013",125.00,125.84,123.69,125.34,"4,546,200",62.09
"Feb 21, 2013",126.49,127.06,123.55,124.04,"5,828,200",61.45
"Feb 20, 2013",131.43,131.74,127.32,127.39,"4,943,600",63.11
"Feb 19, 2013",130.56,131.58,130.04,131.40,"3,935,400",65.09
"Feb 15, 2013",133.26,134.00,127.78,129.19,"6,343,200",64.00
"Feb 14, 2013",138.07,138.20,133.08,133.33,"5,912,000",66.05
"Feb 13, 2013",134.10,134.40,132.70,133.60,"3,178,000",66.18
"Feb 12, 2013",133.50,134.69,132.80,134.10,"3,462,400",66.43
"Feb 11, 2013",133.29,133.68,132.12,133.34,"3,396,200",66.05
"Feb 8, 2013",130.14,133.39,130.14,133.28,"3,602,200",66.02
"Feb 7, 2013",129.72,130.11,128.05,129.77,"2,315,800",64.29
"Feb 6, 2013",127.73,129.92,127.53,129.67,"1,729,400",64.24
"Feb 5, 2013",128.65,129.27,127.90,128.82,"2,044,400",63.82
"Feb 4, 2013",127.67,127.79,126.60,127.29,"2,681,200",63.06
"Feb 1, 2013",126.64,128.79,124.99,128.60,"3,367,000",63.71
"Jan 31, 2013",125.50,125.97,124.50,124.98,"3,528,000",61.91
"Jan 30, 2013",127.17,129.43,126.17,126.32,"3,195,000",62.58
"Jan 29, 2013",124.66,127.19,124.01,126.94,"2,821,400",62.88
"Jan 28, 2013",125.81,125.81,123.55,124.20,"2,718,400",61.53
"Jan 25, 2013",125.37,126.54,124.54,125.27,"2,365,000",62.06
"Jan 24, 2013",124.90,126.40,124.79,124.99,"2,724,000",61.92
"Jan 23, 2013",126.16,126.59,124.50,124.75,"2,282,000",61.80
"Jan 22, 2013",126.95,127.34,124.90,126.50,"3,831,400",62.67
"Jan 18, 2013",126.34,127.08,125.22,126.79,"3,532,800",62.81
"Jan 17, 2013",126.00,126.55,124.89,126.03,"3,449,000",62.43
"Jan 16, 2013",124.83,125.50,124.39,125.37,"3,009,800",62.11
"Jan 15, 2013",124.01,125.50,123.75,125.10,"3,347,000",61.97
"Jan 14, 2013",125.65,126.28,124.23,124.66,"2,046,800",61.67
"Jan 11, 2013",126.06,126.45,125.00,125.63,"2,264,600",62.15
"Jan 10, 2013",125.40,126.13,124.56,126.10,"2,277,000",62.38
"Jan 9, 2013",124.36,125.17,123.69,124.63,"1,755,200",61.66
"Jan 8, 2013",125.75,125.99,123.18,124.14,"3,122,400",61.41
"Jan 7, 2013",125.21,126.10,124.15,125.99,"2,857,800",62.33
"Jan 4, 2013",124.23,126.25,123.95,125.80,"2,518,600",62.23
"Jan 3, 2013",123.49,125.49,122.47,124.18,"2,928,400",61.43
"Jan 2, 2013",123.40,123.68,121.44,123.68,"3,665,200",61.19
"Dec 31, 2012",118.11,120.98,118.00,120.79,"3,561,800",59.76
"Dec 28, 2012",120.56,120.93,118.50,118.61,"2,196,200",58.68
"Dec 27, 2012",121.98,122.15,119.56,121.63,"3,196,600",60.17
"Dec 26, 2012",123.14,123.15,121.22,121.55,"2,096,400",60.13
"Dec 24, 2012",123.11,124.20,122.68,122.77,"1,560,800",60.74
"Dec 21, 2012",122.42,124.16,121.88,123.57,"4,666,400",61.13
"Dec 20, 2012",122.79,124.50,122.40,124.37,"3,053,600",61.53
"Dec 19, 2012",123.60,124.02,122.44,122.45,"3,038,800",60.58
"Dec 18, 2012",121.08,124.25,121.00,123.92,"3,696,200",61.30
"Dec 17, 2012",119.39,120.98,118.78,120.97,"2,499,600",59.84
"Dec 14, 2012",118.38,119.80,118.04,118.99,"2,401,800",58.87
"Dec 13, 2012",120.31,120.65,118.35,118.51,"3,789,200",58.63
"Dec 12, 2012",119.20,121.37,118.72,120.74,"3,622,600",59.73
"Dec 11, 2012",118.32,119.50,117.97,118.73,"2,716,000",58.74
"Dec 10, 2012",117.20,117.86,116.57,117.73,"2,132,400",58.24
"Dec 7, 2012",118.71,118.71,116.93,117.35,"2,670,400",58.05
"Dec 6, 2012",118.29,118.75,117.00,118.36,"2,416,600",58.55
"Dec 5, 2012",117.50,119.55,117.34,118.72,"3,441,200",58.73
"Dec 4, 2012",116.94,118.00,116.69,117.18,"1,801,400",57.97
"Dec 3, 2012",118.24,119.10,117.13,117.24,"2,572,400",58.00
"Nov 30, 2012",117.40,118.41,117.05,117.62,"2,897,200",58.19
"Nov 29, 2012",117.60,118.42,116.81,117.64,"2,838,000",58.20
"Nov 28, 2012",114.09,116.59,112.72,116.35,"3,223,200",57.56
"Nov 27, 2012",115.54,116.06,114.44,115.08,"5,118,400",56.93
"Nov 26, 2012",117.45,117.83,115.60,116.65,"2,502,400",57.71
"Nov 23, 2012",118.50,119.15,117.65,118.99,"1,168,800",58.87
"Nov 21, 2012",117.79,118.54,117.40,118.14,"2,230,200",58.44
"Nov 20, 2012",118.39,118.54,116.55,117.40,"2,629,400",58.08
"Nov 19, 2012",118.21,120.80,117.82,118.61,"3,986,000",58.68
"Nov 16, 2012",117.25,117.46,114.79,116.67,"5,257,800",57.72
"Nov 15, 2012",113.44,116.55,113.32,116.16,"4,758,000",57.47
"Nov 14, 2012",115.38,115.90,113.00,113.36,"3,100,000",56.08
"Nov 13, 2012",113.90,117.14,113.69,115.28,"3,884,800",57.03
"Nov 12, 2012",115.09,115.60,113.44,114.76,"2,177,600",56.77
"Nov 9, 2012",115.63,116.77,114.45,114.52,"4,984,600",56.65
"Nov 8, 2012",119.87,120.77,115.71,115.77,"4,513,600",57.27
"Nov 7, 2012",120.00,120.95,119.33,120.00,"6,031,800",59.36
"Nov 6, 2012",123.39,124.49,121.30,121.98,"8,548,400",60.34
"Nov 5, 2012",114.55,117.07,114.55,116.81,"4,379,000",57.79
"Nov 2, 2012",117.77,118.51,114.69,115.20,"5,006,800",56.99
"Nov 1, 2012",116.49,118.60,116.04,116.88,"3,662,000",57.82
"Oct 31, 2012",114.25,116.57,114.24,116.49,"4,601,800",57.63
"Oct 26, 2012",112.29,114.50,112.01,114.09,"4,463,600",56.44
"Oct 25, 2012",112.05,112.44,110.91,112.42,"2,301,600",55.62
"Oct 24, 2012",110.88,111.54,109.77,110.70,"3,774,200",54.76
"Oct 23, 2012",110.07,110.90,109.03,110.16,"4,001,000",54.50
"Oct 22, 2012",112.78,112.94,110.43,112.11,"3,717,400",55.46
"Oct 19, 2012",114.53,115.45,112.57,113.07,"3,024,000",55.94
"Oct 18, 2012",114.54,115.08,113.74,114.75,"2,171,600",56.77
"Oct 17, 2012",114.54,115.65,113.57,115.24,"2,874,200",57.01
"Oct 16, 2012",111.71,113.89,111.51,113.74,"3,286,200",56.27
"Oct 15, 2012",108.66,110.58,107.76,110.25,"2,979,000",54.54
"Oct 12, 2012",109.97,110.31,107.87,108.78,"2,558,200",53.73
"Oct 11, 2012",110.41,111.27,109.60,109.83,"1,995,000",54.25
"Oct 10, 2012",110.85,111.35,109.19,109.50,"2,658,400",54.09
"Oct 9, 2012",109.91,111.80,109.28,111.05,"2,638,800",54.85
"Oct 8, 2012",108.86,109.97,108.64,109.82,"2,263,000",54.24
"Oct 5, 2012",111.51,112.40,109.50,109.91,"3,295,800",54.29
"Oct 4, 2012",111.93,112.25,110.65,111.42,"4,041,200",55.03
"Oct 3, 2012",114.83,115.00,110.80,111.08,"4,238,000",54.87
"Oct 2, 2012",114.79,115.28,113.87,115.14,"3,617,200",56.87
"Oct 1, 2012",112.99,114.69,112.91,114.19,"3,422,000",56.40
"Sep 28, 2012",112.60,113.00,111.14,112.05,"2,295,400",55.35
"Sep 27, 2012",111.76,113.77,111.50,113.20,"1,953,800",55.91
"Sep 26, 2012",111.87,112.08,110.40,110.60,"2,732,400",54.63
"Sep 25, 2012",113.70,114.41,112.26,112.42,"3,068,400",55.53
"Sep 24, 2012",112.60,113.74,112.16,113.21,"2,492,600",55.92
"Sep 21, 2012",114.57,114.74,113.25,113.95,"4,015,200",56.28
"Sep 20, 2012",112.91,114.08,111.49,113.55,"4,148,000",56.09
"Sep 19, 2012",115.66,115.79,113.50,113.57,"3,288,000",56.10
"Sep 18, 2012",116.23,116.82,114.57,115.88,"2,282,400",57.24
"Sep 17, 2012",117.41,118.23,115.88,116.40,"2,922,200",57.49
"Sep 14, 2012",115.74,119.69,115.74,117.62,"3,856,600",58.10
"Sep 13, 2012",113.43,116.12,111.80,115.18,"3,997,000",56.89
"Sep 12, 2012",112.85,113.94,111.59,112.98,"3,305,000",55.80
"Sep 11, 2012",112.81,113.46,111.93,112.43,"3,332,600",55.53
"Sep 10, 2012",113.00,114.47,112.09,112.40,"3,535,000",55.52
"Sep 7, 2012",110.95,113.28,110.73,112.88,"4,704,400",55.76
"Sep 6, 2012",109.82,113.21,109.60,112.41,"4,160,800",55.52
"Sep 5, 2012",109.08,109.51,108.45,108.54,"3,174,200",53.61
"Sep 4, 2012",108.26,109.75,107.19,109.32,"4,144,200",54.00
"Aug 31, 2012",106.99,108.61,106.10,108.30,"3,420,200",53.49
"Aug 30, 2012",107.45,107.45,105.45,105.89,"2,562,800",52.30
"Aug 29, 2012",108.88,108.98,107.47,108.05,"2,580,200",53.37
"Aug 28, 2012",109.24,109.92,108.04,108.82,"3,514,600",53.75
"Aug 27, 2012",108.98,109.96,108.16,109.17,"2,816,200",53.92
"Aug 24, 2012",106.96,109.18,106.57,108.91,"4,370,400",53.79
"Aug 23, 2012",108.75,109.18,106.44,107.01,"2,864,600",52.86
"Aug 22, 2012",108.55,109.20,107.10,108.91,"3,105,400",53.79
"Aug 21, 2012",110.28,110.85,108.27,108.77,"3,073,800",53.73
"Aug 20, 2012",111.51,111.56,109.17,109.57,"2,584,200",54.12
"Aug 17, 2012",110.50,111.36,110.10,111.19,"2,636,600",54.92
"Aug 16, 2012",109.76,111.08,109.40,110.99,"3,037,200",54.82
"Aug 15, 2012",109.68,110.73,108.97,109.82,"2,989,200",54.24
"Aug 14, 2012",110.26,111.11,109.71,110.35,"3,886,600",54.51
"Aug 13, 2012",110.90,110.90,108.82,109.30,"2,663,200",53.99
"Aug 10, 2012",108.11,110.36,108.00,109.99,"3,002,200",54.33
"Aug 9, 2012",107.53,110.80,107.43,109.41,"4,150,800",54.04
"Aug 8, 2012",107.42,109.06,107.41,107.90,"3,798,400",53.30
"Aug 7, 2012",105.73,109.50,105.57,108.74,"4,976,200",53.71
"Aug 6, 2012",106.97,107.33,105.51,105.74,"5,040,200",52.23
"Aug 3, 2012",103.06,108.75,102.14,106.75,"10,517,400",52.73
"Aug 2, 2012",98.13,99.13,95.28,96.12,"4,967,400",47.48
"Aug 1, 2012",98.93,101.19,97.04,100.45,"4,492,600",49.62
"Jul 31, 2012",99.42,99.90,97.95,98.01,"3,237,800",48.41
"Jul 30, 2012",100.68,101.62,98.43,99.56,"3,378,400",49.18
"Jul 27, 2012",97.97,101.47,97.45,101.01,"4,790,200",49.89
"Jul 26, 2012",97.34,98.58,96.26,97.42,"4,041,800",48.12
"Jul 25, 2012",96.49,96.73,94.21,95.69,"3,024,400",47.26
"Jul 24, 2012",97.29,97.90,94.41,95.50,"3,716,000",47.17
"Jul 23, 2012",96.63,97.48,94.23,97.20,"6,470,400",48.01
"Jul 20, 2012",97.47,99.29,96.25,99.23,"5,496,200",49.01
"Jul 19, 2012",97.19,98.63,96.77,98.25,"6,149,800",48.53
"Jul 18, 2012",94.85,97.43,94.55,96.70,"5,117,400",47.76
"Jul 17, 2012",94.18,95.43,92.33,95.24,"5,095,000",47.04
"Jul 16, 2012",92.43,93.84,91.29,93.24,"3,599,000",46.05
"Jul 13, 2012",91.37,93.08,91.20,92.93,"3,690,400",45.90
"Jul 12, 2012",90.16,91.84,89.09,91.05,"5,869,600",44.89
"Jul 11, 2012",89.71,92.62,89.71,91.88,"5,386,200",45.30
"Jul 10, 2012",91.47,91.96,88.75,89.35,"4,704,200",44.05
"Jul 9, 2012",90.41,92.87,90.19,91.49,"4,715,000",45.11
"Jul 6, 2012",89.77,91.35,89.07,90.64,"3,424,200",44.69
"Jul 5, 2012",94.08,94.50,91.76,92.00,"4,101,600",45.36
"Jul 3, 2012",90.00,95.00,90.00,94.89,"5,677,200",46.78
"Jul 2, 2012",89.54,89.94,87.54,88.94,"3,431,400",43.85
"Jun 29, 2012",87.95,90.26,87.57,90.11,"9,941,400",44.43
"Jun 28, 2012",85.20,85.84,83.89,85.16,"8,044,200",41.98
"Jun 27, 2012",84.25,86.17,84.08,85.73,"10,073,800",42.27
"Jun 26, 2012",84.92,85.56,82.48,83.96,"7,419,800",41.39
"Jun 25, 2012",85.69,85.88,83.66,84.90,"6,179,200",41.86
"Jun 22, 2012",87.69,87.97,85.87,87.62,"6,630,400",43.20
"Jun 21, 2012",92.85,93.27,86.34,86.48,"11,919,000",42.64
"Jun 20, 2012",96.14,96.77,92.14,92.94,"6,199,000",45.82
"Jun 19, 2012",95.69,96.32,94.58,95.95,"4,502,200",47.30
"Jun 18, 2012",96.03,96.17,94.36,94.73,"4,492,600",46.70
"Jun 15, 2012",94.89,96.78,93.91,96.64,"5,798,600",47.64
"Jun 14, 2012",92.90,94.95,92.22,94.46,"5,099,200",46.57
"Jun 13, 2012",93.79,95.23,92.02,92.70,"4,524,600",45.70
"Jun 12, 2012",92.61,94.37,92.23,94.17,"3,856,800",46.43
"Jun 11, 2012",95.35,96.10,91.80,91.93,"4,168,200",45.32
"Jun 8, 2012",93.82,94.13,91.76,93.88,"4,717,600",46.28
"Jun 7, 2012",96.58,97.40,94.41,95.45,"6,559,000",47.06
"Jun 6, 2012",93.04,94.96,92.83,94.92,"5,499,000",46.80
"Jun 5, 2012",89.61,92.23,89.57,91.87,"6,586,000",45.29
"Jun 4, 2012",91.96,92.17,88.85,90.40,"10,072,600",44.57
"Jun 1, 2012",95.88,96.14,91.34,91.67,"13,415,000",45.19
"May 31, 2012",100.75,100.85,96.40,99.30,"7,350,600",48.96
"May 30, 2012",103.34,103.34,99.90,100.99,"5,560,600",49.79
"May 29, 2012",104.45,105.32,103.16,104.86,"4,652,600",51.70
"May 25, 2012",100.56,102.43,100.56,101.75,"3,559,600",50.16
"May 24, 2012",102.00,102.39,99.14,100.79,"3,806,200",49.69
"May 23, 2012",100.29,101.79,97.78,101.70,"5,439,800",50.14
"May 22, 2012",101.59,103.47,100.47,101.33,"5,602,000",49.96
"May 21, 2012",97.33,100.26,97.29,100.20,"4,474,000",49.40
"May 18, 2012",97.89,98.62,95.78,96.31,"4,443,200",47.48
"May 17, 2012",98.91,99.32,97.16,97.34,"3,874,400",47.99
"May 16, 2012",99.66,101.60,98.55,98.95,"3,981,400",48.78
"May 15, 2012",100.99,101.70,98.64,99.21,"3,836,800",48.91
"May 14, 2012",102.90,102.90,100.88,101.04,"3,667,400",49.81
"May 11, 2012",105.48,106.55,103.91,104.23,"4,469,800",51.39
"May 10, 2012",106.74,107.33,105.51,106.51,"5,334,600",52.51
"May 9, 2012",103.81,105.68,100.76,105.10,"7,535,400",51.82
"May 8, 2012",103.62,104.19,100.41,103.99,"4,339,600",51.27
"May 7, 2012",104.47,105.85,103.29,104.77,"3,265,000",51.65
"May 4, 2012",106.40,107.20,104.38,105.29,"4,330,600",51.91
"May 3, 2012",109.00,109.94,107.22,107.71,"3,882,200",53.10
"May 2, 2012",109.90,109.90,108.22,109.28,"4,145,600",53.88
"May 1, 2012",110.30,112.24,109.80,111.23,"3,552,800",54.84
"Apr 30, 2012",108.88,109.94,107.84,109.81,"3,000,800",54.14
"Apr 27, 2012",109.01,109.24,108.10,109.02,"4,275,000",53.75
"Apr 26, 2012",106.42,108.88,106.01,108.52,"4,686,400",53.50
"Apr 25, 2012",105.38,106.51,104.59,106.43,"5,718,200",52.47
"Apr 24, 2012",104.11,104.93,103.40,104.45,"4,512,400",51.50
"Apr 23, 2012",100.61,103.77,100.59,103.60,"3,771,600",51.08
"Apr 20, 2012",104.89,105.50,102.79,103.03,"3,376,600",50.80
"Apr 19, 2012",104.30,105.29,103.31,103.96,"3,121,600",51.25
"Apr 18, 2012",104.39,104.98,103.57,104.17,"3,813,400",51.36
"Apr 17, 2012",103.92,105.31,103.53,104.80,"4,108,400",51.67
"Apr 16, 2012",103.86,105.12,101.83,102.77,"3,074,000",50.67
"Apr 13, 2012",104.73,105.30,103.10,103.33,"3,018,600",50.94
"Apr 12, 2012",103.00,105.65,102.94,105.22,"6,345,200",51.87
"Apr 11, 2012",105.18,105.52,102.51,102.95,"6,017,200",50.67
"Apr 10, 2012",107.44,107.72,103.81,104.00,"6,604,200",51.19
"Apr 9, 2012",106.95,108.03,106.61,107.44,"5,445,200",52.88
"Apr 5, 2012",110.12,111.47,108.85,109.18,"4,629,800",53.74
"Apr 4, 2012",112.06,112.39,109.70,110.52,"3,127,600",54.40
"Apr 3, 2012",112.63,113.70,112.17,113.56,"4,647,400",55.89
"Apr 2, 2012",110.99,114.33,110.32,113.35,"3,899,200",55.79
"Mar 30, 2012",109.48,111.48,108.76,111.10,"3,541,200",54.68
"Mar 29, 2012",108.49,109.26,107.15,109.02,"2,885,200",53.66
"Mar 28, 2012",110.74,110.95,108.50,109.63,"3,495,600",53.96
"Mar 27, 2012",112.46,112.53,110.92,111.28,"2,920,800",54.77
"Mar 26, 2012",112.76,113.20,111.61,112.16,"2,741,400",55.20
"Mar 23, 2012",110.48,112.65,110.16,111.73,"4,599,000",54.99
"Mar 22, 2012",112.36,113.14,109.86,110.35,"4,562,200",54.31
"Mar 21, 2012",114.71,115.10,113.07,113.81,"3,303,400",56.02
"Mar 20, 2012",116.14,116.14,114.15,114.71,"3,449,600",56.46
"Mar 19, 2012",116.65,117.97,116.11,117.39,"3,386,200",57.78
"Mar 16, 2012",116.36,117.87,115.79,116.78,"5,474,600",57.48
"Mar 15, 2012",114.84,116.27,114.05,115.63,"3,907,200",56.91
"Mar 14, 2012",116.81,116.95,114.08,114.68,"3,395,400",56.45
"Mar 13, 2012",113.85,116.94,113.02,116.85,"5,206,400",57.51
"Mar 12, 2012",115.24,115.24,112.52,113.73,"2,890,600",55.98
"Mar 9, 2012",114.50,115.75,114.06,114.98,"2,713,400",56.59
"Mar 8, 2012",114.72,115.32,113.32,114.41,"3,130,000",56.31
"Mar 7, 2012",112.72,113.67,112.03,113.14,"3,895,400",55.69
"Mar 6, 2012",111.12,112.81,110.22,112.72,"5,257,800",55.48
"Mar 5, 2012",113.51,113.62,111.36,113.20,"3,162,600",55.72
"Mar 2, 2012",116.40,116.78,113.08,113.90,"4,699,200",56.06
"Mar 1, 2012",114.25,117.01,114.25,116.91,"5,143,200",57.54
"Feb 29, 2012",116.73,117.20,113.38,113.86,"6,444,600",56.04
"Feb 28, 2012",115.92,117.20,115.50,116.61,"4,872,000",57.40
"Feb 27, 2012",117.33,117.80,115.62,115.62,"4,582,600",56.91
"Feb 24, 2012",116.66,118.08,116.19,117.55,"3,351,800",57.86
"Feb 23, 2012",115.85,116.60,114.50,116.50,"4,004,000",57.34
"Feb 22, 2012",115.96,117.51,115.57,115.66,"5,726,800",56.93
"Feb 21, 2012",115.98,116.99,114.99,115.65,"6,828,600",56.92
"Feb 17, 2012",119.07,119.97,113.49,114.35,"12,338,800",56.28
"Feb 16, 2012",114.99,118.81,114.53,117.62,"6,609,800",57.89
"Feb 15, 2012",114.50,115.90,113.35,114.84,"5,980,600",56.52
"Feb 14, 2012",113.16,113.82,112.37,113.75,"4,835,800",55.99
"Feb 13, 2012",112.54,113.65,112.18,113.38,"3,973,600",55.81
"Feb 10, 2012",110.77,111.83,110.16,111.83,"3,686,800",55.04
"Feb 9, 2012",111.05,113.66,110.88,112.45,"3,964,600",55.35
"Feb 8, 2012",111.44,111.69,109.55,111.42,"3,084,400",54.84
"Feb 7, 2012",110.00,111.50,109.05,111.13,"3,658,800",54.70
"Feb 6, 2012",109.47,110.55,108.77,110.06,"6,138,400",54.17
"Feb 3, 2012",108.03,110.12,107.10,109.09,"4,429,800",53.69
"Feb 2, 2012",105.65,108.13,104.96,106.48,"4,281,400",52.41
"Feb 1, 2012",106.95,106.98,104.68,105.90,"6,657,200",52.12
"Jan 31, 2012",105.57,106.27,104.70,106.14,"5,577,800",52.24
"Jan 30, 2012",103.01,105.43,102.17,105.31,"4,345,600",51.83
"Jan 27, 2012",104.33,105.26,103.49,104.12,"3,197,800",51.25
"Jan 26, 2012",107.29,107.50,104.23,104.75,"4,547,600",51.56
"Jan 25, 2012",104.28,107.20,103.02,106.81,"4,330,400",52.57
"Jan 24, 2012",104.63,104.89,103.50,104.55,"3,867,200",51.46
"Jan 23, 2012",104.83,106.63,104.37,105.60,"5,463,000",51.98
"Jan 20, 2012",104.87,104.97,102.44,103.16,"5,567,800",50.78
"Jan 19, 2012",105.69,106.53,104.68,105.08,"5,439,600",51.72
"Jan 18, 2012",103.62,105.82,102.81,105.37,"3,217,000",51.86
"Jan 17, 2012",104.70,105.11,102.66,103.72,"3,053,600",51.05
"Jan 13, 2012",102.67,103.45,101.43,103.04,"3,482,800",50.72
"Jan 12, 2012",103.63,104.70,102.54,103.88,"4,658,400",51.13
"Jan 11, 2012",104.78,105.49,102.95,103.17,"4,476,000",50.70
"Jan 10, 2012",105.39,107.27,104.90,105.52,"6,240,000",51.86
"Jan 9, 2012",102.47,103.06,101.50,102.17,"3,525,600",50.21
"Jan 6, 2012",102.25,103.77,102.00,102.43,"4,493,000",50.34
"Jan 5, 2012",101.15,102.51,99.82,102.15,"5,075,000",50.20
"Jan 4, 2012",101.46,101.99,100.62,101.59,"4,909,000",49.92
"Jan 3, 2012",100.61,102.13,100.40,101.45,"5,597,400",49.86
"Dec 30, 2011",98.05,99.10,97.79,98.51,"2,569,800",48.41
"Dec 29, 2011",96.37,98.18,96.37,98.05,"2,686,600",48.19
"Dec 28, 2011",99.23,99.49,96.12,96.44,"3,013,400",47.39
"Dec 27, 2011",98.39,99.74,98.10,99.01,"3,238,200",48.66
"Dec 23, 2011",98.48,99.13,97.23,98.27,"3,113,600",48.29
"Dec 22, 2011",98.22,98.64,97.94,98.33,"5,866,400",48.32
"Dec 21, 2011",98.25,98.69,96.52,98.18,"4,880,600",48.25
"Dec 20, 2011",97.84,99.19,97.35,97.97,"4,700,800",48.15
"Dec 19, 2011",97.51,97.73,95.20,95.57,"3,772,400",46.97
"Dec 16, 2011",95.43,97.90,94.74,97.68,"7,302,000",48.00
"Dec 15, 2011",94.56,95.56,93.01,94.44,"6,036,000",46.41
"Dec 14, 2011",96.98,97.06,93.11,93.17,"9,268,200",45.79
"Dec 13, 2011",101.76,103.13,97.16,98.50,"5,826,000",48.41
"Dec 12, 2011",102.09,102.26,99.15,101.05,"4,360,000",49.66
"Dec 9, 2011",100.47,104.42,100.47,103.75,"5,692,400",50.99
"Dec 8, 2011",102.54,104.58,100.13,100.63,"4,964,600",49.45
"Dec 7, 2011",104.11,104.29,101.66,103.03,"4,165,800",50.63
"Dec 6, 2011",102.46,106.20,102.08,104.89,"4,272,200",51.55
"Dec 5, 2011",103.99,104.86,101.23,102.11,"5,158,000",50.18
"Dec 2, 2011",103.79,104.00,102.12,102.56,"3,256,000",50.40
"Dec 1, 2011",103.63,104.99,101.69,102.53,"3,870,200",50.39
"Nov 30, 2011",102.04,104.41,102.04,103.74,"7,282,400",50.98
"Nov 29, 2011",96.27,98.92,96.01,98.23,"5,018,400",48.27
"Nov 28, 2011",93.99,96.79,93.86,95.59,"3,889,800",46.98
"Nov 25, 2011",90.85,92.84,90.77,90.87,"1,223,400",44.66
"Nov 23, 2011",93.61,93.89,91.39,91.61,"4,856,000",45.02
"Nov 22, 2011",95.58,96.31,93.64,94.98,"3,498,800",46.68
"Nov 21, 2011",95.71,96.65,94.05,96.01,"2,933,000",47.18
"Nov 18, 2011",98.37,99.86,96.03,97.84,"4,463,200",48.08
"Nov 17, 2011",100.40,101.30,96.16,97.02,"5,014,400",47.68
"Nov 16, 2011",101.94,103.41,100.54,100.69,"8,456,600",49.48
"Nov 15, 2011",103.33,103.92,102.00,102.36,"3,845,400",50.30
"Nov 14, 2011",102.94,104.47,101.30,103.77,"5,572,800",51.00
"Nov 11, 2011",101.21,104.05,101.17,104.01,"4,880,000",51.11
"Nov 10, 2011",99.41,100.77,98.43,100.04,"4,688,400",49.16
"Nov 9, 2011",99.44,100.66,98.00,98.23,"5,810,000",48.27
"Nov 8, 2011",101.75,102.24,99.45,101.91,"4,995,600",50.08
"Nov 7, 2011",101.48,102.40,99.73,101.17,"5,557,800",49.72
"Nov 4, 2011",98.84,102.52,98.28,101.68,"7,401,600",49.97
"Nov 3, 2011",97.58,100.61,96.19,100.03,"9,132,800",49.16
"Nov 2, 2011",90.72,97.82,90.13,96.04,"16,995,200",47.20
"Nov 1, 2011",85.99,87.00,83.88,85.88,"7,520,600",42.20
"Oct 31, 2011",93.39,93.50,89.30,89.43,"5,455,200",43.95
"Oct 28, 2011",91.64,95.26,91.63,95.18,"6,090,000",46.77
"Oct 27, 2011",91.00,94.00,89.83,92.84,"7,409,200",45.62
"Oct 26, 2011",88.98,89.27,86.34,87.42,"7,715,600",42.96
"Oct 25, 2011",91.08,91.08,87.25,87.52,"6,034,200",43.01
"Oct 24, 2011",91.11,91.81,90.24,91.08,"6,153,600",44.76
"Oct 21, 2011",88.96,91.08,88.21,90.62,"5,544,800",44.53
"Oct 20, 2011",87.51,88.04,85.09,87.34,"6,293,400",42.92
"Oct 19, 2011",85.66,89.18,85.51,87.87,"8,468,200",43.18
"Oct 18, 2011",81.52,86.61,80.23,86.02,"7,436,200",42.27
"Oct 17, 2011",83.30,84.10,81.12,81.41,"3,861,600",40.01
"Oct 14, 2011",82.09,84.07,81.71,83.98,"4,630,600",41.27
"Oct 13, 2011",80.02,80.53,77.64,80.22,"4,819,000",39.42
"Oct 12, 2011",80.80,82.69,80.30,80.95,"4,541,200",39.70
"Oct 11, 2011",78.64,80.49,77.97,80.14,"6,092,600",39.31
"Oct 10, 2011",76.84,79.45,76.74,79.41,"5,093,800",38.95
"Oct 7, 2011",79.05,79.23,74.73,74.90,"6,520,600",36.74
"Oct 6, 2011",76.37,78.91,75.51,78.54,"5,830,000",38.52
"Oct 5, 2011",73.71,76.95,73.22,76.80,"7,513,400",37.67
"Oct 4, 2011",67.34,74.03,66.81,73.66,"12,197,400",36.13
"Oct 3, 2011",70.14,70.24,67.79,68.41,"9,832,600",33.55
"Sep 30, 2011",71.39,72.76,69.55,71.01,"7,677,800",34.83
"Sep 29, 2011",76.03,76.36,71.88,73.78,"6,866,600",36.19
"Sep 28, 2011",78.73,78.80,74.14,74.29,"4,861,000",36.44
"Sep 27, 2011",78.65,80.52,78.04,78.61,"6,291,800",38.56
"Sep 26, 2011",75.26,76.79,73.14,76.68,"7,592,000",37.61
"Sep 23, 2011",75.36,77.17,73.35,73.72,"7,707,800",36.16
"Sep 22, 2011",80.83,80.93,75.13,76.75,"10,625,000",37.64
"Sep 21, 2011",86.97,88.31,83.41,83.43,"4,491,200",40.92
"Sep 20, 2011",88.21,89.55,86.87,87.12,"3,761,600",42.73
"Sep 19, 2011",88.12,88.62,85.96,87.76,"3,672,000",43.04
"Sep 16, 2011",91.13,91.25,89.25,90.16,"5,116,800",44.22
"Sep 15, 2011",88.87,90.40,88.12,90.40,"3,907,000",44.34
"Sep 14, 2011",85.86,88.86,85.10,87.75,"4,477,600",43.04
"Sep 13, 2011",86.43,87.42,85.32,86.75,"3,189,600",42.55
"Sep 12, 2011",84.53,86.16,83.92,86.11,"4,431,800",42.23
"Sep 9, 2011",87.31,88.28,84.91,85.32,"5,251,200",41.85
"Sep 8, 2011",89.62,91.97,88.77,89.25,"4,854,600",43.77
"Sep 7, 2011",88.48,90.85,88.10,90.67,"3,595,000",44.47
"Sep 6, 2011",85.74,87.11,84.93,86.96,"5,123,200",42.65
"Sep 2, 2011",89.35,90.19,87.82,88.35,"4,919,600",43.33
"Sep 1, 2011",93.32,94.16,91.29,91.42,"3,392,800",44.84
"Aug 31, 2011",92.98,94.17,91.44,92.59,"5,493,600",45.41
"Aug 30, 2011",91.10,92.75,89.75,92.20,"3,328,600",45.22
"Aug 29, 2011",91.22,91.68,89.81,91.55,"4,200,600",44.90
"Aug 26, 2011",87.74,90.16,86.00,89.85,"4,555,800",44.07
"Aug 25, 2011",90.62,91.23,87.53,88.26,"5,556,200",43.29
"Aug 24, 2011",88.35,90.03,87.84,89.92,"4,626,000",44.10
"Aug 23, 2011",86.32,89.00,85.58,88.97,"7,207,200",43.64
"Aug 22, 2011",89.90,90.50,85.85,86.35,"6,204,800",42.35
"Aug 19, 2011",86.62,89.77,86.50,87.57,"6,513,600",42.95
"Aug 18, 2011",91.66,91.66,86.85,87.63,"7,368,400",42.98
"Aug 17, 2011",95.27,97.05,93.02,94.00,"4,094,600",46.10
"Aug 16, 2011",95.00,95.70,93.11,94.58,"5,794,800",46.39
"Aug 15, 2011",95.19,96.48,94.63,96.29,"5,036,000",47.23
"Aug 12, 2011",96.78,97.83,93.14,94.15,"7,189,600",46.18
"Aug 11, 2011",87.96,94.28,86.95,93.14,"9,001,200",45.68
"Aug 10, 2011",90.51,91.08,86.68,86.99,"11,145,200",42.67
"Aug 9, 2011",90.28,91.90,86.10,90.86,"14,977,600",44.56
"Aug 8, 2011",93.60,93.81,87.06,88.60,"11,371,400",43.46
"Aug 5, 2011",98.27,101.22,93.40,95.92,"18,031,400",47.05
"Aug 4, 2011",96.51,96.51,91.45,92.13,"8,768,800",45.19
"Aug 3, 2011",99.27,99.33,95.57,97.98,"6,110,800",48.06
"Aug 2, 2011",100.86,102.37,99.08,99.21,"4,176,600",48.66
"Aug 1, 2011",103.89,104.32,100.49,101.62,"3,660,800",49.84
"Jul 29, 2011",102.18,103.36,101.50,102.00,"6,388,800",50.03
"Jul 28, 2011",104.04,105.33,103.07,103.43,"4,736,800",50.73
"Jul 27, 2011",106.00,106.02,103.97,104.07,"4,082,000",51.04
"Jul 26, 2011",106.21,107.88,104.62,106.57,"4,235,200",52.27
"Jul 25, 2011",105.20,107.46,104.80,106.21,"3,798,400",52.09
"Jul 22, 2011",105.55,106.60,105.01,106.57,"3,288,400",52.27
"Jul 21, 2011",104.64,105.90,104.09,105.56,"3,878,600",51.77
"Jul 20, 2011",104.81,104.81,103.53,103.81,"4,192,600",50.92
"Jul 19, 2011",102.00,104.28,102.00,104.03,"4,730,200",51.02
"Jul 18, 2011",101.39,102.59,100.48,101.52,"5,338,400",49.79
"Jul 15, 2011",100.00,102.12,99.74,101.19,"13,502,400",49.63
"Jul 14, 2011",99.46,99.58,96.40,96.71,"5,437,800",47.43
"Jul 13, 2011",99.51,101.09,98.58,98.94,"3,888,000",48.53
"Jul 12, 2011",98.84,100.11,98.53,98.89,"3,965,800",48.42
"Jul 11, 2011",100.44,100.44,98.57,99.01,"3,145,200",48.48
"Jul 8, 2011",101.98,102.62,101.16,101.92,"3,406,200",49.91
"Jul 7, 2011",103.67,104.01,102.44,103.55,"3,802,200",50.71
"Jul 6, 2011",103.04,103.32,101.75,102.27,"2,543,800",50.08
"Jul 5, 2011",103.31,104.99,102.95,103.24,"2,969,800",50.55
"Jul 1, 2011",104.37,104.56,102.39,103.08,"6,685,000",50.48
"Jun 30, 2011",103.55,104.83,103.24,104.55,"3,776,600",51.20
"Jun 29, 2011",102.63,104.16,101.59,103.10,"3,681,200",50.48
"Jun 28, 2011",100.60,102.79,99.99,102.41,"3,730,000",50.15
"Jun 27, 2011",97.40,100.43,97.21,100.33,"5,812,400",49.13
"Jun 24, 2011",100.08,100.41,98.07,98.27,"3,929,200",48.12
"Jun 23, 2011",99.06,100.24,96.62,100.16,"5,682,800",49.05
"Jun 22, 2011",101.73,103.40,101.22,101.34,"5,531,800",49.62
"Jun 21, 2011",101.51,103.18,101.23,102.19,"4,096,800",50.04
"Jun 20, 2011",101.51,101.91,100.22,100.90,"5,040,400",49.41
"Jun 17, 2011",102.41,102.99,100.71,102.25,"5,916,000",50.07
"Jun 16, 2011",102.56,103.55,101.25,101.61,"5,596,400",49.76
"Jun 15, 2011",104.15,105.33,102.25,102.87,"5,424,200",50.37
"Jun 14, 2011",106.26,106.98,104.62,105.03,"5,366,400",51.43
"Jun 13, 2011",107.99,108.56,103.65,104.71,"5,597,000",51.27
"Jun 10, 2011",110.00,110.46,107.57,107.67,"3,801,000",52.72
"Jun 9, 2011",109.56,111.17,109.03,110.78,"3,680,400",54.25
"Jun 8, 2011",108.12,110.86,108.12,108.94,"3,959,800",53.34
"Jun 7, 2011",109.51,110.04,108.02,108.05,"4,261,000",52.91
"Jun 6, 2011",110.54,112.04,109.03,109.06,"5,428,800",53.40
"Jun 3, 2011",109.35,111.79,107.80,110.56,"4,492,400",54.14
"Jun 2, 2011",108.41,111.71,108.41,110.91,"6,241,000",54.31
"Jun 1, 2011",109.51,111.67,107.96,108.19,"6,434,800",52.98
"May 31, 2011",110.01,110.19,107.10,109.14,"3,567,400",53.44
"May 27, 2011",107.88,109.08,107.39,108.15,"2,603,400",52.96
"May 26, 2011",106.70,107.50,105.39,107.23,"2,363,800",52.51
"May 25, 2011",105.50,107.92,105.50,107.20,"3,190,400",52.49
"May 24, 2011",105.17,107.09,104.85,106.06,"4,681,400",51.93
"May 23, 2011",105.10,105.60,103.97,104.25,"3,889,000",51.05
"May 20, 2011",106.07,107.94,104.88,106.85,"4,046,400",52.32
"May 19, 2011",106.97,107.22,105.07,105.99,"3,097,000",51.90
"May 18, 2011",105.89,107.47,105.50,106.62,"3,874,200",52.21
"May 17, 2011",104.13,106.18,103.77,105.61,"3,940,800",51.71
"May 16, 2011",105.17,107.71,104.23,104.70,"3,133,600",51.27
"May 13, 2011",105.82,106.80,104.41,105.44,"3,634,800",51.63
"May 12, 2011",105.46,106.91,104.13,105.52,"4,428,600",51.67
"May 11, 2011",110.45,110.68,106.00,106.69,"4,347,000",52.24
"May 10, 2011",111.42,111.78,109.78,110.85,"3,331,600",54.28
"May 9, 2011",110.23,111.90,109.50,111.32,"4,764,600",54.51
"May 6, 2011",109.00,111.36,106.13,107.44,"7,192,600",52.61
"May 5, 2011",104.26,105.43,101.84,104.35,"6,925,400",51.10
"May 4, 2011",107.76,107.76,104.84,106.28,"3,866,600",52.04
"May 3, 2011",110.69,110.70,107.23,108.15,"4,120,400",52.96
"May 2, 2011",113.48,113.80,110.47,110.94,"3,705,000",54.32
"Apr 29, 2011",111.85,113.55,111.08,113.05,"2,631,200",55.36
"Apr 28, 2011",111.61,113.05,110.33,111.98,"3,068,000",54.83
"Apr 27, 2011",112.01,112.20,109.19,111.76,"2,500,400",54.73
"Apr 26, 2011",110.74,111.77,109.98,111.72,"2,200,000",54.71
"Apr 25, 2011",111.99,112.19,109.73,110.34,"1,935,800",54.03
"Apr 21, 2011",111.33,112.28,110.60,111.87,"2,048,000",54.78
"Apr 20, 2011",111.33,112.01,110.45,111.82,"3,606,400",54.75
"Apr 19, 2011",109.91,110.39,108.49,109.47,"3,066,000",53.60
"Apr 18, 2011",109.71,110.40,107.84,109.87,"3,455,800",53.80
"Apr 15, 2011",110.85,111.87,109.56,111.04,"3,491,400",54.37
"Apr 14, 2011",109.70,111.29,108.70,110.72,"3,631,600",54.22
"Apr 13, 2011",110.09,112.19,109.64,110.61,"3,883,000",54.16
"Apr 12, 2011",111.53,111.53,108.16,109.23,"5,550,400",53.41
"Apr 11, 2011",114.56,114.98,111.86,112.67,"2,872,000",55.09
"Apr 8, 2011",115.46,116.39,113.80,114.66,"3,438,800",56.06
"Apr 7, 2011",114.53,115.68,112.76,114.66,"4,410,400",56.06
"Apr 6, 2011",117.73,117.96,114.76,114.81,"4,067,400",56.14
"Apr 5, 2011",118.04,118.74,116.63,116.92,"3,861,200",57.17
"Apr 4, 2011",118.90,119.82,118.07,118.37,"3,827,600",57.88
"Apr 1, 2011",119.17,119.30,117.82,118.39,"8,316,600",57.89
"Mar 31, 2011",119.24,120.10,118.42,118.51,"5,689,400",57.95
"Mar 30, 2011",120.30,121.44,118.36,119.19,"7,209,400",58.28
"Mar 29, 2011",117.51,119.76,115.80,119.67,"6,065,400",58.51
"Mar 28, 2011",116.77,119.71,116.34,118.44,"6,207,200",57.91
"Mar 25, 2011",115.82,118.13,114.76,117.54,"5,161,000",57.47
"Mar 24, 2011",114.91,115.70,113.02,115.55,"5,755,800",56.50
"Mar 23, 2011",113.43,114.07,112.00,114.07,"8,087,600",55.77
"Mar 22, 2011",112.34,114.43,112.01,113.36,"6,558,200",55.43
"Mar 21, 2011",109.49,111.46,109.00,111.40,"4,526,000",54.47
"Mar 18, 2011",109.76,110.45,107.04,107.93,"5,936,600",52.77
"Mar 17, 2011",106.77,109.16,105.87,108.68,"4,200,000",53.14
"Mar 16, 2011",105.80,107.51,103.07,104.49,"5,072,200",51.09
"Mar 15, 2011",103.28,106.48,102.65,105.44,"4,851,800",51.56
"Mar 14, 2011",105.07,107.10,104.13,106.53,"3,951,200",52.09
"Mar 11, 2011",102.61,106.55,102.00,105.65,"3,767,200",51.66
"Mar 10, 2011",104.53,104.53,102.41,102.83,"5,261,800",50.28
"Mar 9, 2011",106.14,107.63,105.20,105.80,"3,472,400",51.73
"Mar 8, 2011",108.54,108.90,106.07,106.20,"3,493,200",51.93
"Mar 7, 2011",110.24,111.39,108.18,108.58,"3,717,000",53.09
"Mar 4, 2011",110.81,111.58,108.39,109.38,"4,348,800",53.48
"Mar 3, 2011",109.31,111.27,107.98,111.09,"6,069,800",54.32
"Mar 2, 2011",105.85,108.95,104.38,108.69,"15,563,600",53.14
"Mar 1, 2011",109.50,112.19,107.87,107.93,"9,073,000",52.77
"Feb 28, 2011",112.09,113.24,111.55,112.31,"3,500,200",54.91
"Feb 25, 2011",110.70,112.49,110.04,111.75,"3,297,800",54.64
"Feb 24, 2011",114.59,115.17,109.80,110.17,"7,247,000",53.87
"Feb 23, 2011",108.51,114.74,108.51,114.39,"8,300,000",55.93
"Feb 22, 2011",109.86,111.63,108.09,108.32,"5,797,800",52.96
"Feb 18, 2011",106.84,109.80,106.81,108.89,"7,652,200",53.24
"Feb 17, 2011",103.28,104.58,102.34,104.22,"6,126,400",50.96
"Feb 16, 2011",104.07,105.35,102.94,102.99,"4,648,400",50.36
"Feb 15, 2011",104.79,106.19,103.16,103.55,"4,232,000",50.63
"Feb 14, 2011",103.35,106.53,103.35,104.90,"4,243,000",51.29
"Feb 11, 2011",103.83,104.51,103.05,103.30,"3,040,400",50.51
"Feb 10, 2011",103.47,104.69,103.09,104.24,"3,645,600",50.97
"Feb 9, 2011",104.30,105.32,102.76,103.95,"3,408,200",50.83
"Feb 8, 2011",105.82,105.82,103.55,104.76,"4,232,000",51.22
"Feb 7, 2011",107.36,108.47,105.44,105.59,"3,483,600",51.63
"Feb 4, 2011",107.30,107.49,105.71,106.78,"3,308,400",52.21
"Feb 3, 2011",106.89,107.24,105.62,107.05,"1,949,000",52.34
"Feb 2, 2011",107.01,108.29,106.34,107.24,"2,989,600",52.44
"Feb 1, 2011",106.72,108.27,105.85,107.38,"4,528,000",52.50
"Jan 31, 2011",102.74,106.58,102.74,106.39,"4,616,000",52.02
"Jan 28, 2011",103.37,105.15,102.17,102.53,"5,658,800",50.13
"Jan 27, 2011",101.91,104.14,101.73,103.25,"5,182,200",50.48
"Jan 26, 2011",100.38,102.94,100.25,102.28,"4,638,400",50.01
"Jan 25, 2011",101.58,101.58,98.94,99.87,"3,947,600",48.83
"Jan 24, 2011",101.35,102.13,100.61,101.73,"3,284,600",49.74
"Jan 21, 2011",101.99,102.58,100.50,101.72,"4,812,000",49.74
"Jan 20, 2011",99.78,101.49,99.23,101.36,"4,891,600",49.56
"Jan 19, 2011",102.85,103.00,100.77,101.44,"5,794,800",49.60
"Jan 18, 2011",100.83,103.21,100.33,102.88,"6,014,600",50.30
"Jan 14, 2011",97.80,100.71,97.25,100.58,"4,361,200",49.18
"Jan 13, 2011",98.23,98.58,97.04,97.86,"3,336,400",47.85
"Jan 12, 2011",97.49,99.32,96.93,98.49,"5,176,800",48.16
"Jan 11, 2011",95.44,96.87,94.78,96.73,"5,838,400",47.22
"Jan 10, 2011",94.15,95.00,93.82,94.95,"5,149,600",46.35
"Jan 7, 2011",93.26,94.35,92.91,94.26,"4,830,200",46.01
"Jan 6, 2011",93.35,94.43,92.30,92.82,"5,178,400",45.31
"Jan 5, 2011",91.26,92.99,90.84,92.33,"3,472,600",45.07
"Jan 4, 2011",93.08,93.28,91.39,92.14,"4,125,400",44.98
"Jan 3, 2011",92.45,93.50,92.27,92.35,"3,500,800",45.08
"Dec 31, 2010",91.65,92.12,91.31,91.41,"2,042,400",44.62
"Dec 30, 2010",91.22,92.06,90.87,91.75,"2,328,400",44.79
"Dec 29, 2010",90.47,91.54,89.97,91.19,"2,110,200",44.52
"Dec 28, 2010",90.51,90.65,89.92,89.98,"2,696,200",43.93
"Dec 27, 2010",91.25,91.43,89.53,90.12,"2,715,800",43.99
"Dec 23, 2010",90.59,92.06,90.31,91.45,"4,685,800",44.64
"Dec 22, 2010",91.91,92.57,91.46,92.20,"1,766,800",45.01
"Dec 21, 2010",91.73,92.45,91.09,91.65,"1,700,000",44.74
"Dec 20, 2010",91.87,92.00,89.88,91.46,"4,067,000",44.65
"Dec 17, 2010",90.41,91.80,90.08,91.67,"4,847,000",44.75
"Dec 16, 2010",90.17,90.71,89.76,90.51,"2,003,800",44.18
"Dec 15, 2010",91.35,92.19,89.85,90.12,"3,600,800",43.99
"Dec 14, 2010",90.82,92.09,90.18,91.65,"3,678,000",44.74
"Dec 13, 2010",91.50,92.50,90.59,90.70,"4,532,800",44.28
"Dec 10, 2010",91.93,92.43,90.73,90.75,"3,956,000",44.30
"Dec 9, 2010",92.35,93.41,91.77,92.23,"4,115,200",45.02
"Dec 8, 2010",93.17,93.53,91.41,92.20,"2,988,600",45.01
"Dec 7, 2010",95.55,96.07,92.43,92.71,"4,757,200",45.26
"Dec 6, 2010",93.55,94.70,93.51,94.38,"2,933,400",46.07
"Dec 3, 2010",93.46,94.00,92.78,93.74,"3,337,800",45.76
"Dec 2, 2010",91.53,93.99,91.53,93.86,"3,973,200",45.82
"Dec 1, 2010",90.49,91.72,89.56,91.63,"4,811,200",44.73
"Nov 30, 2010",88.42,89.87,88.01,88.95,"4,456,400",43.42
"Nov 29, 2010",88.64,89.63,87.61,89.22,"3,600,200",43.55
"Nov 26, 2010",88.97,89.80,88.84,88.92,"924,000",43.41
"Nov 24, 2010",89.30,90.05,88.54,89.80,"3,512,800",43.84
"Nov 23, 2010",91.15,91.20,88.50,88.70,"5,899,600",43.30
"Nov 22, 2010",92.69,93.63,90.98,92.50,"2,544,000",45.16
"Nov 19, 2010",91.65,93.07,91.14,92.96,"4,420,400",45.38
"Nov 18, 2010",90.51,92.72,90.05,92.11,"4,851,400",44.97
"Nov 17, 2010",91.28,91.92,89.98,90.17,"4,036,200",44.02
"Nov 16, 2010",91.42,91.42,89.60,91.05,"5,232,200",44.45
"Nov 15, 2010",93.50,94.22,92.08,92.43,"4,264,800",45.12
"Nov 12, 2010",93.11,93.45,91.23,92.05,"4,709,800",44.94
"Nov 11, 2010",93.22,95.00,93.22,94.11,"4,416,000",45.94
"Nov 10, 2010",92.41,94.09,92.07,93.88,"5,630,200",45.83
"Nov 9, 2010",90.14,92.81,89.86,91.99,"8,864,000",44.91
"Nov 8, 2010",89.21,91.34,88.75,89.46,"9,334,800",43.67
"Nov 5, 2010",88.66,88.86,87.00,88.61,"7,278,200",43.26
"Nov 4, 2010",89.76,89.76,86.31,88.29,"12,523,800",43.10
"Nov 3, 2010",90.49,90.50,86.00,88.64,"32,201,000",43.27
"Nov 2, 2010",97.17,98.36,95.86,97.74,"4,069,000",47.71
"Nov 1, 2010",96.88,97.91,95.36,96.07,"2,844,000",46.90
"Oct 29, 2010",94.52,96.03,94.14,95.72,"4,066,800",46.73
"Oct 28, 2010",96.39,96.91,94.34,94.94,"2,881,000",46.35
"Oct 27, 2010",94.92,95.90,93.66,95.76,"3,506,000",46.75
"Oct 26, 2010",96.86,97.68,95.18,95.75,"4,025,000",46.74
"Oct 25, 2010",98.03,98.92,97.12,97.46,"2,669,400",47.58
"Oct 22, 2010",99.47,99.48,96.49,97.31,"3,956,600",47.50
"Oct 21, 2010",100.45,101.68,97.68,98.80,"4,220,800",48.23
"Oct 20, 2010",99.56,100.82,99.16,100.12,"2,897,400",48.88
"Oct 19, 2010",99.78,100.10,98.54,99.48,"6,010,000",48.56
"Oct 18, 2010",99.87,102.06,99.56,101.33,"4,470,600",49.47
"Oct 15, 2010",99.70,100.83,99.15,100.04,"6,134,200",48.84
"Oct 14, 2010",97.87,99.74,97.87,99.01,"4,141,400",48.33
"Oct 13, 2010",99.71,100.23,98.35,98.75,"5,705,800",48.21
"Oct 12, 2010",98.88,99.44,97.79,98.91,"2,613,400",48.21
"Oct 11, 2010",99.00,100.64,98.79,99.56,"2,612,000",48.53
"Oct 8, 2010",98.68,99.82,97.97,99.46,"3,355,800",48.48
"Oct 7, 2010",99.01,99.07,97.62,98.56,"3,866,000",48.04
"Oct 6, 2010",97.27,99.43,97.19,98.52,"4,737,400",48.02
"Oct 5, 2010",96.76,97.76,95.43,97.33,"4,217,800",47.44
"Oct 4, 2010",95.37,96.85,95.18,95.72,"6,281,200",46.65
"Oct 1, 2010",94.11,96.59,93.98,96.17,"6,027,800",46.87
"Sep 30, 2010",94.48,94.85,91.71,92.97,"5,975,800",45.31
"Sep 29, 2010",91.01,93.94,90.76,93.82,"5,637,600",45.73
"Sep 28, 2010",91.36,91.98,90.08,91.78,"3,562,600",44.73
"Sep 27, 2010",92.24,92.97,91.19,91.25,"3,128,200",44.48
"Sep 24, 2010",91.14,92.87,90.06,92.11,"5,462,400",44.89
"Sep 23, 2010",89.30,90.78,88.63,89.67,"4,382,800",43.71
"Sep 22, 2010",89.70,90.93,89.70,90.36,"7,357,200",44.04
"Sep 21, 2010",88.00,90.25,87.27,89.62,"7,783,000",43.68
"Sep 20, 2010",89.42,89.87,87.35,87.73,"9,566,400",42.76
"Sep 17, 2010",91.08,91.08,87.84,89.11,"14,141,400",43.43
"Sep 16, 2010",92.19,92.70,90.44,91.00,"4,964,800",44.35
"Sep 15, 2010",91.74,92.15,90.73,91.58,"5,565,200",44.64
"Sep 14, 2010",91.87,93.14,91.30,92.20,"3,089,800",44.94
"Sep 13, 2010",93.15,93.15,91.64,92.29,"3,136,800",44.98
"Sep 10, 2010",89.62,92.56,89.62,92.20,"6,026,600",44.94
"Sep 9, 2010",91.44,91.50,88.52,89.37,"3,482,000",43.56
"Sep 8, 2010",88.72,90.63,88.72,90.27,"4,197,200",44.00
"Sep 7, 2010",89.26,89.89,88.34,88.71,"4,334,400",43.24
"Sep 3, 2010",90.33,91.38,89.79,90.33,"4,177,800",44.03
"Sep 2, 2010",90.08,90.08,88.44,89.49,"3,262,400",43.62
"Sep 1, 2010",88.28,90.06,87.29,89.94,"6,198,200",43.84
"Aug 31, 2010",87.15,88.32,85.91,86.87,"5,759,200",42.34
"Aug 30, 2010",89.24,89.93,87.53,87.56,"4,549,800",42.68
"Aug 27, 2010",87.55,89.61,85.80,89.40,"4,313,000",43.57
"Aug 26, 2010",88.08,89.02,86.18,86.62,"4,585,600",42.22
"Aug 25, 2010",87.91,87.98,85.42,87.46,"7,512,000",42.63
"Aug 24, 2010",90.30,90.48,87.54,88.61,"7,086,000",43.19
"Aug 23, 2010",91.63,92.95,91.39,91.73,"3,983,200",44.71
"Aug 20, 2010",91.26,91.70,90.43,91.42,"5,652,400",44.56
"Aug 19, 2010",92.99,93.59,91.12,91.52,"5,907,400",44.61
"Aug 18, 2010",94.77,95.00,91.96,93.35,"6,057,200",45.50
"Aug 17, 2010",95.07,95.60,93.79,95.16,"4,893,600",46.38
"Aug 16, 2010",93.49,94.19,92.11,94.09,"5,392,600",45.86
"Aug 13, 2010",95.31,95.93,93.71,94.17,"8,137,600",45.90
"Aug 12, 2010",95.39,97.86,95.03,95.36,"5,922,400",46.48
"Aug 11, 2010",98.59,99.18,96.73,97.15,"4,957,600",47.35
"Aug 10, 2010",98.80,101.41,98.49,100.70,"9,591,400",49.08
"Aug 9, 2010",100.17,100.60,98.11,99.94,"5,257,200",48.71
"Aug 6, 2010",96.45,99.73,95.25,99.26,"13,765,000",48.38
"Aug 5, 2010",102.25,102.90,101.12,102.44,"3,536,800",49.93
"Aug 4, 2010",102.06,103.75,101.52,103.00,"3,199,200",50.20
"Aug 3, 2010",102.30,102.85,101.20,101.70,"4,207,400",49.57
"Aug 2, 2010",99.31,102.85,99.06,102.51,"5,238,800",49.96
"Jul 30, 2010",99.58,100.98,97.14,97.50,"7,647,800",47.52
"Jul 29, 2010",101.73,102.02,99.47,100.58,"3,649,600",49.02
"Jul 28, 2010",100.93,101.86,100.02,100.56,"3,330,600",49.01
"Jul 27, 2010",103.86,103.94,99.11,100.56,"6,075,000",49.01
"Jul 26, 2010",102.21,104.42,102.21,103.72,"3,420,200",50.55
"Jul 23, 2010",102.79,103.21,100.59,102.33,"4,672,200",49.88
"Jul 22, 2010",103.85,104.74,102.77,103.20,"4,220,600",50.30
"Jul 21, 2010",104.53,104.64,101.53,102.42,"4,824,000",49.92
"Jul 20, 2010",100.48,104.49,100.01,104.15,"5,762,800",50.76
"Jul 19, 2010",102.68,103.52,100.67,102.01,"4,603,600",49.72
"Jul 16, 2010",105.12,105.53,101.13,102.28,"6,213,400",49.85
"Jul 15, 2010",107.00,107.00,103.93,106.19,"4,244,400",51.76
"Jul 14, 2010",106.11,108.47,105.16,106.64,"4,206,400",51.98
"Jul 13, 2010",106.99,108.32,106.51,106.81,"5,246,600",51.98
"Jul 12, 2010",105.30,106.60,104.68,105.54,"3,225,400",51.37
"Jul 9, 2010",105.89,106.89,104.25,105.57,"3,729,800",51.38
"Jul 8, 2010",104.88,106.80,103.75,106.22,"7,048,200",51.70
"Jul 7, 2010",100.12,103.82,99.23,103.80,"5,457,800",50.52
"Jul 6, 2010",100.34,102.70,98.77,99.85,"5,190,000",48.60
"Jul 2, 2010",98.69,100.65,97.57,98.34,"5,203,200",47.86
"Jul 1, 2010",98.52,99.98,95.78,99.08,"6,529,800",48.22
"Jun 30, 2010",100.26,101.35,98.05,98.37,"7,370,200",47.88
"Jun 29, 2010",103.33,103.76,99.53,100.24,"8,280,600",48.79
"Jun 28, 2010",108.94,109.57,104.94,105.42,"6,190,600",51.31
"Jun 25, 2010",106.24,109.97,104.61,109.78,"14,346,000",53.43
"Jun 24, 2010",105.82,108.22,103.98,104.59,"5,616,200",50.90
"Jun 23, 2010",106.57,107.92,105.26,106.84,"5,380,000",52.00
"Jun 22, 2010",110.61,111.35,105.81,106.45,"6,003,800",51.81
"Jun 21, 2010",112.00,113.90,109.52,110.61,"6,072,000",53.83
"Jun 18, 2010",110.00,110.55,108.98,110.22,"6,053,600",53.64
"Jun 17, 2010",110.42,111.14,108.52,110.06,"5,131,000",53.57
"Jun 16, 2010",109.44,111.42,108.73,110.39,"3,497,000",53.73
"Jun 15, 2010",110.61,111.03,108.85,110.36,"6,059,200",53.71
"Jun 14, 2010",110.94,112.16,108.64,108.95,"6,218,800",53.03
"Jun 11, 2010",107.99,109.91,106.95,109.86,"4,579,000",53.47
"Jun 10, 2010",105.82,108.87,105.82,108.77,"6,913,000",52.94
"Jun 9, 2010",106.18,108.54,103.09,103.81,"6,417,000",50.52
"Jun 8, 2010",102.51,105.79,101.10,105.36,"8,279,400",51.28
"Jun 7, 2010",103.56,106.20,99.38,101.14,"10,243,600",49.22
"Jun 4, 2010",107.80,110.59,101.93,102.99,"12,639,600",50.12
"Jun 3, 2010",107.47,109.91,105.12,109.73,"7,268,000",53.41
"Jun 2, 2010",102.10,107.80,100.87,107.75,"8,104,600",52.44
"Jun 1, 2010",103.59,104.99,100.59,100.83,"6,682,200",49.07
"May 28, 2010",106.03,107.57,103.85,104.84,"6,427,400",51.03
"May 27, 2010",101.97,106.72,101.45,106.51,"8,044,200",51.84
"May 26, 2010",100.02,101.89,99.40,99.74,"6,588,600",48.54
"May 25, 2010",93.50,98.93,93.43,98.71,"6,507,000",48.04
"May 24, 2010",99.63,101.07,97.26,97.36,"5,724,600",47.38
"May 21, 2010",94.38,100.66,93.28,100.59,"8,270,400",48.96
"May 20, 2010",99.64,99.78,96.03,96.29,"5,676,600",46.86
"May 19, 2010",102.52,104.23,99.59,102.23,"5,389,000",49.76
"May 18, 2010",104.99,105.92,102.47,102.84,"5,912,000",50.05
"May 17, 2010",106.16,107.29,100.96,103.23,"6,259,200",50.24
"May 14, 2010",106.94,107.62,103.41,106.09,"3,996,000",51.63
"May 13, 2010",108.11,110.11,107.60,108.08,"5,214,200",52.60
"May 12, 2010",105.00,108.74,105.00,108.38,"6,906,000",52.75
"May 11, 2010",104.98,105.41,103.85,104.74,"7,709,400",50.98
"May 10, 2010",102.67,107.77,101.57,106.49,"6,382,800",51.83
"May 7, 2010",101.82,104.56,98.93,100.84,"7,443,600",49.08
"May 6, 2010",104.40,105.47,96.57,102.37,"9,517,000",49.82
"May 5, 2010",108.00,108.94,104.27,105.17,"6,750,800",51.19
"May 4, 2010",109.35,110.54,105.43,110.24,"8,399,000",53.65
"May 3, 2010",112.82,114.90,111.04,113.56,"5,917,000",55.27
"Apr 30, 2010",111.54,114.95,110.56,112.12,"7,072,200",54.57
"Apr 29, 2010",110.19,111.61,109.19,111.26,"4,683,200",54.15
"Apr 28, 2010",109.39,110.39,108.07,109.42,"4,351,200",53.25
"Apr 27, 2010",112.05,113.04,108.35,108.63,"4,669,200",52.87
"Apr 26, 2010",113.95,114.58,112.15,112.48,"4,169,200",54.74
"Apr 23, 2010",112.15,113.86,111.07,113.72,"5,312,800",55.35
"Apr 22, 2010",110.97,113.22,109.86,113.01,"4,489,400",55.00
"Apr 21, 2010",111.31,112.22,110.45,111.87,"3,977,000",54.45
"Apr 20, 2010",108.88,111.67,108.88,111.51,"5,422,800",54.27
"Apr 19, 2010",106.46,108.40,106.30,107.99,"5,201,600",52.56
"Apr 16, 2010",109.56,110.36,107.30,107.47,"6,579,000",52.31
"Apr 15, 2010",109.38,110.95,108.70,110.50,"4,230,800",53.78
"Apr 14, 2010",108.83,109.44,107.31,109.29,"5,541,000",53.19
"Apr 13, 2010",106.96,108.40,105.17,107.38,"7,185,800",52.19
"Apr 12, 2010",104.58,107.30,103.91,107.18,"6,823,200",52.09
"Apr 9, 2010",107.33,108.19,104.67,104.77,"6,304,000",50.92
"Apr 8, 2010",103.93,107.78,103.74,106.96,"14,024,400",51.98
"Apr 7, 2010",100.42,105.24,99.88,103.74,"16,481,200",50.42
"Apr 6, 2010",97.61,98.61,97.10,97.38,"5,366,400",47.33
"Apr 5, 2010",96.16,98.13,95.60,97.77,"6,428,200",47.52
"Apr 1, 2010",94.03,95.61,94.01,95.58,"4,849,800",46.45
"Mar 31, 2010",93.50,94.01,92.68,92.94,"6,341,600",45.17
"Mar 30, 2010",92.92,93.69,92.22,93.34,"4,418,600",45.36
"Mar 29, 2010",91.61,93.09,91.56,92.96,"6,187,800",45.18
"Mar 26, 2010",89.67,89.67,87.53,89.59,"7,181,600",43.54
"Mar 25, 2010",93.29,93.91,89.12,89.42,"6,803,200",43.46
"Mar 24, 2010",93.15,94.45,92.10,92.57,"4,117,800",44.99
"Mar 23, 2010",91.73,94.25,91.51,94.14,"5,594,800",45.75
"Mar 22, 2010",90.76,92.63,89.59,91.50,"6,130,600",44.47
"Mar 19, 2010",91.70,94.36,90.34,91.70,"8,416,400",44.57
"Mar 18, 2010",96.05,96.39,92.35,93.28,"6,340,200",45.33
"Mar 17, 2010",96.77,97.54,95.25,95.81,"5,742,400",46.56
"Mar 16, 2010",97.49,97.49,95.97,96.48,"3,621,600",46.89
"Mar 15, 2010",97.32,97.49,95.36,96.89,"3,561,600",47.09
"Mar 12, 2010",98.84,98.93,97.07,97.58,"2,114,400",47.42
"Mar 11, 2010",98.62,99.19,97.38,97.78,"4,580,200",47.52
"Mar 10, 2010",97.89,99.38,97.42,98.84,"4,033,400",48.04
"Mar 9, 2010",96.52,99.28,96.52,98.05,"5,116,800",47.65
"Mar 8, 2010",97.14,98.22,97.00,97.37,"4,479,800",47.32
"Mar 5, 2010",95.95,97.47,95.26,97.38,"5,520,200",47.33
"Mar 4, 2010",96.04,96.94,94.83,95.20,"4,888,800",46.27
"Mar 3, 2010",95.46,96.32,94.78,95.82,"4,738,600",46.57
"Mar 2, 2010",95.16,96.09,94.52,94.83,"3,815,600",46.09
"Mar 1, 2010",94.47,95.55,94.23,94.65,"4,078,400",46.00
"Feb 26, 2010",93.54,94.38,92.40,94.05,"3,510,200",45.71
"Feb 25, 2010",90.66,93.33,89.95,93.22,"3,998,800",45.30
"Feb 24, 2010",91.41,92.98,90.82,92.68,"5,405,400",45.04
"Feb 23, 2010",91.40,91.95,89.60,89.91,"4,300,000",43.70
"Feb 22, 2010",95.22,95.22,91.80,92.11,"3,793,400",44.76
"Feb 19, 2010",93.87,95.04,92.99,94.64,"3,841,200",45.99
"Feb 18, 2010",92.42,94.82,92.11,94.34,"4,983,600",45.85
"Feb 17, 2010",93.10,93.27,92.19,92.86,"4,310,600",45.13
"Feb 16, 2010",92.65,93.87,92.27,92.82,"5,396,400",45.11
"Feb 12, 2010",89.48,91.24,88.60,90.98,"5,837,000",44.22
"Feb 11, 2010",87.92,91.15,87.77,91.06,"7,156,400",44.25
"Feb 10, 2010",90.63,90.99,86.78,88.24,"15,979,600",42.88
"Feb 9, 2010",93.03,95.30,92.38,94.54,"5,327,800",45.95
"Feb 8, 2010",92.54,93.75,90.89,91.58,"4,260,600",44.51
"Feb 5, 2010",92.90,93.38,90.02,92.86,"5,978,600",45.13
"Feb 4, 2010",95.77,96.04,92.78,92.90,"4,853,200",45.15
"Feb 3, 2010",96.16,98.22,96.06,97.20,"4,281,200",47.24
"Feb 2, 2010",95.84,97.22,94.26,97.03,"3,776,200",47.16
"Feb 1, 2010",91.26,95.66,91.25,95.55,"4,456,800",46.44
"Jan 29, 2010",91.77,94.03,89.37,90.42,"6,351,400",43.94
"Jan 28, 2010",93.01,93.34,89.57,91.51,"5,442,800",44.47
"Jan 27, 2010",92.23,93.82,90.10,92.39,"6,554,400",44.90
"Jan 26, 2010",93.96,95.07,92.44,93.14,"3,936,800",45.27
"Jan 25, 2010",94.86,96.14,94.62,94.97,"2,796,400",46.15
"Jan 22, 2010",96.27,97.19,93.77,94.05,"5,838,200",45.71
"Jan 21, 2010",96.57,97.57,95.30,96.59,"6,386,400",46.94
"Jan 20, 2010",95.82,96.53,95.25,96.33,"4,049,600",46.82
"Jan 19, 2010",96.32,97.59,96.07,97.35,"4,412,200",47.31
"Jan 15, 2010",98.00,98.89,96.69,96.87,"5,931,000",47.08
"Jan 14, 2010",97.68,98.71,97.45,98.00,"3,175,800",47.63
"Jan 13, 2010",95.18,98.16,94.05,97.76,"4,303,600",47.51
"Jan 12, 2010",95.76,97.10,95.16,95.42,"4,477,000",46.30
"Jan 11, 2010",99.58,99.81,97.02,98.14,"3,030,800",47.62
"Jan 8, 2010",97.73,99.29,96.29,99.05,"5,911,400",48.06
"Jan 7, 2010",98.89,99.05,97.44,98.55,"4,496,800",47.82
"Jan 6, 2010",98.84,99.69,97.67,99.48,"3,650,400",48.27
"Jan 5, 2010",99.01,100.00,97.79,99.15,"4,450,000",48.11
"Jan 4, 2010",99.35,100.44,99.24,100.38,"4,110,000",48.71
"Dec 31, 2009",98.82,99.75,97.30,97.30,"1,999,400",47.22
"Dec 30, 2009",99.28,99.71,98.44,98.81,"2,169,800",47.95
"Dec 29, 2009",100.17,100.72,98.42,99.27,"3,954,800",48.17
"Dec 28, 2009",101.76,101.76,99.53,99.93,"3,003,200",48.49
"Dec 24, 2009",99.98,101.45,99.52,100.58,"2,039,200",48.81
"Dec 23, 2009",97.79,99.94,97.68,99.89,"5,675,000",48.47
"Dec 22, 2009",95.57,97.96,95.01,97.77,"4,480,200",47.44
"Dec 21, 2009",93.83,95.24,93.83,94.69,"4,467,400",45.95
"Dec 18, 2009",93.52,94.10,92.25,92.95,"5,674,800",45.10
"Dec 17, 2009",93.21,94.63,91.44,92.53,"5,029,600",44.90
"Dec 16, 2009",92.23,94.32,92.01,93.31,"5,722,600",45.28
"Dec 15, 2009",90.01,92.07,90.01,91.80,"8,194,800",44.55
"Dec 14, 2009",90.17,91.89,89.90,90.39,"13,261,600",43.86
"Dec 11, 2009",87.01,87.37,85.86,86.05,"4,262,400",41.76
"Dec 10, 2009",85.60,87.53,85.59,86.67,"4,778,000",42.06
"Dec 9, 2009",85.74,86.46,84.00,85.69,"4,546,600",41.58
"Dec 8, 2009",86.83,86.91,84.95,85.25,"4,475,000",41.37
"Dec 7, 2009",86.78,88.83,86.04,87.27,"4,416,600",42.35
"Dec 4, 2009",88.23,90.23,85.69,87.07,"6,688,200",42.25
"Dec 3, 2009",86.97,87.90,86.18,86.86,"6,497,800",42.15
"Dec 2, 2009",88.14,88.65,86.56,87.09,"2,879,000",42.26
"Dec 1, 2009",87.61,89.43,87.43,88.29,"4,465,000",42.84
"Nov 30, 2009",86.20,87.59,85.48,86.49,"5,814,000",41.97
"Nov 27, 2009",86.41,87.82,85.40,87.23,"1,805,000",42.33
"Nov 25, 2009",88.71,90.06,87.91,89.71,"4,273,200",43.53
"Nov 24, 2009",88.36,88.72,87.01,88.55,"6,292,800",42.97
"Nov 23, 2009",88.30,89.48,87.77,88.18,"5,365,600",42.79
"Nov 20, 2009",86.27,86.73,85.19,86.47,"6,437,800",41.96
"Nov 19, 2009",87.98,87.98,85.73,86.92,"5,007,400",42.18
"Nov 18, 2009",90.28,90.29,87.69,88.74,"4,376,000",43.06
"Nov 17, 2009",90.13,90.16,88.75,89.98,"3,563,200",43.66
"Nov 16, 2009",90.29,90.90,89.29,90.53,"10,138,200",43.93
"Nov 13, 2009",88.67,89.90,88.06,88.50,"5,975,400",42.95
"Nov 12, 2009",89.94,90.55,87.40,88.86,"5,889,600",43.12
"Nov 11, 2009",91.96,92.48,89.91,90.25,"6,000,000",43.79
"Nov 10, 2009",92.11,92.66,89.92,91.18,"6,099,200",44.25
"Nov 9, 2009",90.01,92.58,90.01,92.40,"6,071,000",44.84
"Nov 6, 2009",90.43,92.28,89.40,90.35,"9,251,000",43.84
"Nov 5, 2009",85.84,88.04,84.32,88.03,"6,540,600",42.72
"Nov 4, 2009",84.73,87.15,84.45,85.30,"8,613,600",41.39
"Nov 3, 2009",81.15,83.43,80.67,83.00,"4,720,200",40.28
"Nov 2, 2009",81.74,83.31,80.37,81.97,"5,542,000",39.78
"Oct 30, 2009",85.81,85.81,80.88,81.66,"6,872,600",39.63
"Oct 29, 2009",85.15,86.17,84.27,85.84,"8,279,400",41.65
"Oct 28, 2009",86.08,86.81,83.87,84.27,"6,108,200",40.89
"Oct 27, 2009",87.70,88.59,86.45,86.77,"4,341,600",42.11
"Oct 26, 2009",89.34,91.56,86.54,86.86,"5,910,800",42.15
"Oct 23, 2009",92.14,92.34,88.37,89.16,"4,673,400",43.27
"Oct 22, 2009",90.60,91.63,89.23,91.45,"6,437,400",44.38
"Oct 21, 2009",93.64,95.86,92.85,92.94,"5,750,600",45.10
"Oct 20, 2009",94.52,95.00,93.10,94.41,"5,473,600",45.81
"Oct 19, 2009",92.56,94.53,92.56,94.35,"4,714,200",45.78
"Oct 16, 2009",92.92,93.31,91.53,92.81,"4,578,000",45.04
"Oct 15, 2009",90.86,93.35,90.72,93.14,"6,246,800",45.20
"Oct 14, 2009",91.02,91.65,89.75,91.44,"5,499,600",44.37
"Oct 13, 2009",90.63,90.63,87.90,89.63,"7,242,800",43.42
"Oct 12, 2009",91.06,91.69,90.06,90.58,"5,085,200",43.88
"Oct 9, 2009",89.17,90.98,88.33,89.60,"7,444,400",43.41
"Oct 8, 2009",85.24,89.91,84.91,89.69,"9,108,600",43.45
"Oct 7, 2009",84.43,85.00,82.88,84.71,"5,369,600",41.04
"Oct 6, 2009",83.65,84.68,82.86,84.58,"5,635,600",40.98
"Oct 5, 2009",80.75,83.00,80.22,82.51,"6,430,200",39.97
"Oct 2, 2009",79.73,81.30,79.37,80.76,"7,547,800",39.13
"Oct 1, 2009",83.58,83.58,80.91,81.05,"9,274,400",39.27
"Sep 30, 2009",82.32,84.36,81.28,83.51,"9,541,600",40.46
"Sep 29, 2009",80.00,81.85,78.91,81.64,"6,419,200",39.55
"Sep 28, 2009",79.35,80.21,78.87,80.13,"2,636,800",38.82
"Sep 25, 2009",79.86,81.00,78.46,78.94,"4,390,400",38.24
"Sep 24, 2009",82.05,82.27,78.65,80.05,"5,906,400",38.78
"Sep 23, 2009",84.03,84.41,82.07,82.21,"5,024,600",39.83
"Sep 22, 2009",82.41,84.43,82.03,84.03,"5,682,400",40.71
"Sep 21, 2009",80.31,81.48,79.51,81.28,"4,089,000",39.38
"Sep 18, 2009",83.11,83.24,80.84,81.86,"4,478,800",39.66
"Sep 17, 2009",83.04,84.28,81.94,82.57,"6,729,400",40.00
"Sep 16, 2009",80.52,83.28,79.76,83.23,"6,368,200",40.32
"Sep 15, 2009",77.58,80.17,77.37,79.86,"6,961,800",38.69
"Sep 14, 2009",75.23,77.22,74.88,77.09,"4,197,000",37.35
"Sep 11, 2009",77.18,78.30,75.58,75.95,"6,904,600",36.80
"Sep 10, 2009",74.46,77.00,73.88,76.82,"5,844,600",37.22
"Sep 9, 2009",73.82,75.01,72.89,74.44,"5,030,000",36.06
"Sep 8, 2009",72.48,74.46,72.25,73.64,"9,507,400",35.68
"Sep 4, 2009",69.45,70.63,68.63,70.47,"4,632,600",34.14
"Sep 3, 2009",70.79,70.79,69.43,69.76,"4,554,000",33.80
"Sep 2, 2009",70.65,70.99,69.84,69.92,"4,771,200",33.87
"Sep 1, 2009",71.74,72.86,70.31,70.62,"5,049,800",34.21
"Aug 31, 2009",71.75,72.11,71.15,72.00,"3,691,800",34.88
"Aug 28, 2009",73.90,74.41,72.48,73.25,"3,265,400",35.49
"Aug 27, 2009",73.25,73.65,71.97,72.96,"5,235,600",35.35
"Aug 26, 2009",73.75,74.27,72.65,73.98,"3,605,600",35.84
"Aug 25, 2009",76.17,76.87,74.20,74.41,"3,813,600",36.05
"Aug 24, 2009",76.56,76.92,75.33,75.83,"2,730,600",36.74
"Aug 21, 2009",74.15,76.34,74.14,75.79,"4,360,600",36.72
"Aug 20, 2009",73.88,74.80,73.39,73.56,"4,555,200",35.64
"Aug 19, 2009",71.76,74.57,71.09,73.82,"3,680,600",35.76
"Aug 18, 2009",71.78,72.79,71.24,72.33,"3,303,400",35.04
"Aug 17, 2009",73.34,73.34,71.02,71.84,"4,109,400",34.80
"Aug 14, 2009",75.59,75.79,73.90,74.69,"4,664,000",36.19
"Aug 13, 2009",74.28,75.76,74.26,75.57,"3,543,800",36.61
"Aug 12, 2009",73.35,75.06,73.35,74.19,"4,152,600",35.94
"Aug 11, 2009",75.69,75.97,73.65,73.76,"4,027,000",35.73
"Aug 10, 2009",74.62,76.98,74.62,76.20,"6,453,600",36.92
"Aug 7, 2009",78.59,79.65,74.51,74.73,"8,959,400",36.20
"Aug 6, 2009",78.79,79.61,76.97,78.22,"5,700,800",37.90
"Aug 5, 2009",77.54,78.13,76.13,78.02,"6,135,200",37.80
"Aug 4, 2009",76.08,77.51,75.23,77.45,"5,036,000",37.52
"Aug 3, 2009",75.20,77.69,75.20,76.65,"5,601,000",37.13
"Jul 31, 2009",72.45,74.95,71.86,74.03,"5,011,600",35.87
"Jul 30, 2009",72.45,73.66,70.90,72.90,"6,087,000",35.32
"Jul 29, 2009",72.31,72.31,70.11,70.90,"4,426,800",34.35
"Jul 28, 2009",73.33,74.15,71.52,73.44,"4,418,800",35.58
"Jul 27, 2009",74.85,74.96,74.00,74.30,"5,069,400",36.00
"Jul 24, 2009",73.51,74.77,73.31,74.69,"4,281,200",36.19
"Jul 23, 2009",71.40,73.99,71.21,73.81,"5,734,400",35.76
"Jul 22, 2009",72.21,72.50,71.03,71.40,"5,029,000",34.59
"Jul 21, 2009",73.14,73.37,71.08,72.59,"4,380,000",35.17
"Jul 20, 2009",70.46,72.46,70.46,72.30,"6,352,800",35.03
"Jul 17, 2009",68.64,70.43,68.35,69.59,"5,798,400",33.71
"Jul 16, 2009",65.88,69.72,65.80,69.25,"7,233,400",33.55
"Jul 15, 2009",65.37,66.80,65.06,66.48,"7,921,000",32.21
"Jul 14, 2009",64.53,65.07,63.62,64.67,"5,728,200",31.26
"Jul 13, 2009",62.45,63.84,61.36,63.83,"6,019,200",30.85
"Jul 10, 2009",61.54,62.95,60.98,62.50,"6,375,600",30.21
"Jul 9, 2009",62.29,63.00,61.39,62.62,"8,203,400",30.27
"Jul 8, 2009",60.64,62.32,60.29,61.77,"10,427,800",29.86
"Jul 7, 2009",62.79,62.79,60.45,60.58,"9,202,400",29.28
"Jul 6, 2009",62.10,62.91,61.48,62.63,"8,720,200",30.27
"Jul 2, 2009",65.65,65.78,63.83,64.23,"7,092,800",31.05
"Jul 1, 2009",68.74,69.75,66.95,67.04,"7,271,800",32.41
"Jun 30, 2009",66.77,68.50,66.46,67.92,"9,122,000",32.83
"Jun 29, 2009",67.91,68.77,66.73,66.96,"8,477,600",32.37
"Jun 26, 2009",68.31,69.19,67.50,67.56,"11,535,000",32.66
"Jun 25, 2009",67.62,69.00,67.36,68.63,"7,332,800",33.17
"Jun 24, 2009",67.51,68.27,66.70,67.32,"8,624,200",32.54
"Jun 23, 2009",67.75,67.75,65.70,67.29,"9,419,600",32.53
"Jun 22, 2009",68.85,68.85,66.52,67.48,"10,640,200",32.62
"Jun 19, 2009",72.88,72.88,69.21,69.92,"13,339,800",33.80
"Jun 18, 2009",73.22,74.10,71.62,72.10,"5,251,800",34.85
"Jun 17, 2009",74.08,74.54,71.70,73.25,"5,639,400",35.41
"Jun 16, 2009",76.82,77.00,73.24,73.86,"6,918,000",35.70
"Jun 15, 2009",76.23,77.43,74.47,76.25,"8,599,400",36.86
"Jun 12, 2009",76.53,77.76,75.59,77.62,"5,926,800",37.52
"Jun 11, 2009",75.49,78.51,75.15,77.09,"8,208,200",37.26
"Jun 10, 2009",75.56,75.70,73.56,75.25,"7,300,000",36.37
"Jun 9, 2009",74.13,75.54,73.48,74.65,"6,586,000",36.08
"Jun 8, 2009",71.77,74.10,71.77,73.70,"6,744,000",35.63
"Jun 5, 2009",74.49,74.84,72.27,73.51,"8,279,400",35.53
"Jun 4, 2009",73.50,74.24,71.74,73.21,"7,055,400",35.39
"Jun 3, 2009",74.83,74.83,71.28,72.57,"7,541,000",35.08
"Jun 2, 2009",76.00,76.55,74.08,76.21,"8,430,800",36.84
"Jun 1, 2009",74.74,77.46,74.73,76.72,"6,546,200",37.09
"May 29, 2009",73.47,73.89,72.15,73.19,"5,954,600",35.38
"May 28, 2009",69.12,73.57,68.78,72.61,"9,063,200",35.10
"May 27, 2009",69.47,70.35,67.89,68.27,"8,435,600",33.00
"May 26, 2009",66.24,69.48,65.48,69.27,"7,306,000",33.48
"May 22, 2009",70.29,70.73,68.96,69.19,"3,597,200",33.45
"May 21, 2009",71.28,71.28,68.83,69.75,"6,644,200",33.72
"May 20, 2009",72.76,74.82,72.18,72.44,"5,443,400",35.02
"May 19, 2009",71.19,73.11,70.75,72.02,"5,420,800",34.81
"May 18, 2009",69.15,71.97,69.15,71.05,"6,765,600",34.34
"May 15, 2009",70.92,71.81,67.50,68.25,"7,274,200",32.99
"May 14, 2009",70.32,71.93,69.18,71.36,"4,898,800",34.49
"May 13, 2009",71.30,72.58,69.18,70.32,"6,814,000",33.99
"May 12, 2009",74.96,74.97,70.96,73.25,"8,695,800",35.41
"May 11, 2009",75.33,75.49,72.87,73.73,"7,374,200",35.64
"May 8, 2009",74.89,77.57,74.34,76.87,"8,698,800",37.16
"May 7, 2009",77.83,79.12,72.46,73.52,"13,761,800",35.54
"May 6, 2009",72.86,77.65,72.28,77.53,"13,852,800",37.48
"May 5, 2009",71.70,72.23,69.01,71.01,"7,643,600",34.33
"May 4, 2009",66.31,72.16,66.28,72.04,"9,372,200",34.82
"May 1, 2009",63.51,66.65,63.28,66.08,"7,522,000",31.94
"Apr 30, 2009",66.07,66.64,62.48,63.48,"8,086,200",30.69
"Apr 29, 2009",63.36,66.93,63.22,65.74,"7,498,600",31.78
"Apr 28, 2009",61.54,64.00,61.13,63.39,"7,324,600",30.64
"Apr 27, 2009",61.46,63.01,60.46,62.42,"5,578,600",30.17
"Apr 24, 2009",62.60,64.16,61.68,63.17,"10,178,800",30.54
"Apr 23, 2009",57.00,60.40,56.74,60.12,"9,707,600",29.06
"Apr 22, 2009",56.74,57.80,55.74,56.36,"6,562,000",27.24
"Apr 21, 2009",55.60,57.04,54.86,56.91,"6,935,400",27.51
"Apr 20, 2009",58.52,58.70,55.85,55.97,"6,878,800",27.06
"Apr 17, 2009",57.80,60.67,57.33,60.08,"8,545,000",29.04
"Apr 16, 2009",60.20,60.30,57.40,58.58,"7,110,000",28.32
"Apr 15, 2009",60.00,61.55,58.45,59.24,"6,477,000",28.64
"Apr 14, 2009",61.84,62.59,60.25,60.52,"7,166,800",29.25
"Apr 13, 2009",60.43,62.77,58.75,61.97,"6,582,800",29.89
"Apr 9, 2009",61.02,62.05,59.67,61.35,"5,287,800",29.59
"Apr 8, 2009",57.29,59.49,55.78,59.05,"5,865,200",28.48
"Apr 7, 2009",59.34,59.77,57.58,57.97,"3,969,400",27.96
"Apr 6, 2009",62.07,62.08,59.63,60.70,"5,047,600",29.27
"Apr 3, 2009",60.32,64.32,59.94,63.14,"6,802,000",30.45
"Apr 2, 2009",58.67,61.40,58.66,60.33,"7,326,400",29.09
"Apr 1, 2009",53.76,57.41,53.09,57.13,"7,474,600",27.55
"Mar 31, 2009",57.19,58.40,54.61,54.76,"8,210,200",26.41
"Mar 30, 2009",57.67,58.48,55.36,56.66,"6,069,800",27.32
"Mar 27, 2009",60.94,61.08,58.83,59.31,"5,949,000",28.60
"Mar 26, 2009",64.08,65.19,61.52,61.99,"7,600,800",29.89
"Mar 25, 2009",63.80,65.89,61.50,63.44,"7,771,400",30.59
"Mar 24, 2009",64.90,65.48,63.28,64.08,"4,656,200",30.90
"Mar 23, 2009",63.64,66.65,63.43,66.08,"7,187,600",31.87
"Mar 20, 2009",64.21,65.00,61.28,61.95,"8,493,800",29.88
"Mar 19, 2009",63.63,65.46,63.10,63.24,"8,830,200",30.50
"Mar 18, 2009",62.45,62.79,58.51,62.01,"12,494,400",29.90
"Mar 17, 2009",61.46,63.10,60.37,63.10,"10,786,400",30.43
"Mar 16, 2009",58.60,62.97,58.60,61.52,"9,112,000",29.67
"Mar 13, 2009",58.75,59.44,57.75,58.99,"8,986,600",28.45
"Mar 12, 2009",54.27,59.10,53.66,58.81,"14,070,800",28.36
"Mar 11, 2009",53.31,54.71,52.50,54.00,"7,700,200",26.04
"Mar 10, 2009",51.57,54.00,51.28,52.91,"9,070,600",25.52
"Mar 9, 2009",51.23,52.52,49.98,50.42,"8,642,200",24.32
"Mar 6, 2009",53.25,54.36,50.22,52.07,"11,733,400",25.11
"Mar 5, 2009",50.33,52.84,49.57,51.84,"15,736,000",25.00
"Mar 4, 2009",49.46,52.79,49.24,51.10,"15,170,800",24.64
"Mar 3, 2009",46.51,49.70,45.53,48.04,"15,610,000",23.17
"Mar 2, 2009",48.27,49.69,45.03,45.59,"11,170,600",21.99
"Feb 27, 2009",50.06,51.63,48.86,50.04,"7,705,600",24.13
"Feb 26, 2009",52.87,53.56,51.15,51.41,"6,563,200",24.79
"Feb 25, 2009",53.23,53.54,51.14,52.03,"8,820,800",25.09
"Feb 24, 2009",51.47,53.41,50.95,53.33,"8,170,000",25.72
"Feb 23, 2009",55.99,56.36,50.85,50.98,"10,596,200",24.59
"Feb 20, 2009",54.61,56.22,54.17,55.11,"9,756,200",26.58
"Feb 19, 2009",57.00,57.92,55.18,55.82,"10,591,400",26.92
"Feb 18, 2009",56.84,57.07,55.00,56.62,"11,810,600",27.31
"Feb 17, 2009",61.99,61.99,56.06,56.24,"12,656,000",27.12
"Feb 13, 2009",64.60,65.31,63.31,63.72,"6,914,000",30.73
"Feb 12, 2009",63.16,64.65,62.35,64.10,"6,960,000",30.91
"Feb 11, 2009",67.60,67.71,63.35,64.36,"7,816,200",31.04
"Feb 10, 2009",70.95,71.72,65.79,66.40,"8,097,200",32.02
"Feb 9, 2009",69.26,71.16,68.25,70.74,"8,033,800",34.11
"Feb 6, 2009",67.62,69.31,66.44,68.41,"8,489,000",32.99
"Feb 5, 2009",68.37,70.13,67.00,69.09,"9,820,400",33.32
"Feb 4, 2009",68.68,70.06,67.94,68.58,"9,603,200",33.07
"Feb 3, 2009",67.57,68.30,66.29,67.89,"8,875,000",32.74
"Feb 2, 2009",66.36,67.95,66.01,66.74,"9,816,400",32.19
"Jan 30, 2009",70.00,70.76,67.29,67.77,"8,403,600",32.68
"Jan 29, 2009",68.37,69.85,68.01,68.57,"8,785,000",33.07
"Jan 28, 2009",68.00,70.17,66.84,69.96,"8,281,800",33.74
"Jan 27, 2009",67.59,67.87,66.04,66.66,"6,738,400",32.15
"Jan 26, 2009",67.70,69.94,67.03,68.00,"7,279,600",32.79
"Jan 23, 2009",62.44,67.63,61.41,66.57,"8,248,400",32.10
"Jan 22, 2009",62.88,65.38,62.01,63.72,"6,760,200",30.73
"Jan 21, 2009",61.12,65.59,60.92,65.32,"8,017,600",31.50
"Jan 20, 2009",62.66,64.88,60.29,60.73,"8,446,800",29.29
"Jan 16, 2009",65.09,65.48,62.00,63.73,"7,614,800",30.73
"Jan 15, 2009",63.25,64.65,61.45,64.02,"9,986,800",30.87
"Jan 14, 2009",65.60,66.31,62.72,63.39,"8,783,000",30.57
"Jan 13, 2009",63.56,67.73,62.90,67.08,"9,307,000",32.28
"Jan 12, 2009",65.46,66.06,62.54,63.57,"6,922,800",30.60
"Jan 9, 2009",69.55,70.65,66.17,66.54,"6,936,000",32.02
"Jan 8, 2009",69.65,70.33,67.74,69.61,"6,005,000",33.50
"Jan 7, 2009",70.18,70.69,66.55,68.67,"6,792,200",33.05
"Jan 6, 2009",71.53,72.39,70.52,71.12,"10,830,000",34.23
"Jan 5, 2009",70.18,72.83,69.03,70.67,"7,711,200",34.01
"Jan 2, 2009",67.94,70.90,66.93,70.39,"5,112,600",33.88
"Dec 31, 2008",64.92,67.76,64.64,66.58,"4,564,800",32.04
"Dec 30, 2008",65.86,65.97,63.85,65.82,"4,941,600",31.68
"Dec 29, 2008",65.69,66.50,64.34,66.14,"4,138,400",31.83
"Dec 26, 2008",63.03,64.59,63.02,64.27,"2,414,400",30.93
"Dec 24, 2008",61.65,63.00,61.29,62.86,"2,499,400",30.25
"Dec 23, 2008",61.36,64.59,61.08,63.33,"6,431,800",30.48
"Dec 22, 2008",64.73,64.90,59.89,61.16,"6,016,200",29.44
"Dec 19, 2008",64.89,66.74,63.98,64.96,"9,103,000",31.26
"Dec 18, 2008",69.15,69.86,64.26,64.84,"7,795,000",31.21
"Dec 17, 2008",70.80,72.68,69.32,69.60,"7,371,600",33.50
"Dec 16, 2008",70.68,71.34,68.76,71.01,"5,659,200",34.18
"Dec 15, 2008",70.04,71.65,67.43,69.14,"7,980,400",33.28
"Dec 12, 2008",68.73,69.75,66.76,67.97,"8,444,400",32.71
"Dec 11, 2008",74.98,78.41,71.42,72.06,"8,293,200",34.68
"Dec 10, 2008",71.88,75.92,71.55,73.67,"9,981,600",35.46
"Dec 9, 2008",68.10,73.37,66.29,70.40,"8,870,800",33.88
"Dec 8, 2008",70.58,72.97,67.32,69.07,"11,358,600",33.24
"Dec 5, 2008",67.00,68.31,62.81,67.94,"11,795,200",32.70
"Dec 4, 2008",77.82,78.52,67.51,68.79,"12,841,600",33.11
"Dec 3, 2008",78.19,81.95,77.58,79.99,"7,577,800",38.50
"Dec 2, 2008",78.50,80.32,75.77,80.02,"9,199,600",38.51
"Dec 1, 2008",81.51,82.80,75.63,76.10,"10,518,400",36.63
"Nov 28, 2008",86.41,87.47,82.15,85.02,"3,535,000",40.92
"Nov 26, 2008",81.28,88.88,80.85,88.47,"10,518,800",42.58
"Nov 25, 2008",84.19,85.43,81.34,84.02,"9,941,400",40.44
"Nov 24, 2008",77.54,86.17,75.57,83.64,"10,860,000",40.25
"Nov 21, 2008",66.88,75.39,65.19,74.71,"14,329,200",35.96
"Nov 20, 2008",75.22,76.18,64.00,64.97,"13,552,400",31.27
"Nov 19, 2008",83.53,84.16,76.43,77.28,"9,964,200",37.19
"Nov 18, 2008",81.14,84.08,78.17,82.53,"8,401,000",39.72
"Nov 17, 2008",80.18,84.44,79.14,80.45,"8,694,800",38.72
"Nov 14, 2008",83.27,85.83,79.96,80.63,"11,116,200",38.81
"Nov 13, 2008",76.58,85.88,72.73,84.97,"16,621,000",40.89
"Nov 12, 2008",77.00,78.68,75.29,76.17,"11,027,000",36.66
"Nov 11, 2008",78.92,81.15,76.59,78.82,"7,999,600",37.93
"Nov 10, 2008",82.14,84.97,78.84,81.10,"7,057,000",39.03
"Nov 7, 2008",78.04,82.32,76.99,79.88,"7,001,800",38.44
"Nov 6, 2008",78.86,80.62,75.04,77.17,"8,642,800",37.14
"Nov 5, 2008",82.13,84.95,80.27,81.81,"7,884,800",39.37
"Nov 4, 2008",78.76,85.50,77.56,84.16,"9,918,200",40.50
"Nov 3, 2008",77.83,79.66,74.35,75.78,"8,118,000",36.47
"Oct 31, 2008",75.30,82.63,73.01,80.92,"8,335,000",38.95
"Oct 30, 2008",73.96,77.63,71.90,76.97,"8,625,800",37.04
"Oct 29, 2008",69.47,76.47,68.08,72.58,"11,876,400",34.93
"Oct 28, 2008",64.57,68.09,59.97,67.53,"8,810,200",32.50
"Oct 27, 2008",64.15,68.67,62.28,62.99,"7,576,800",30.32
"Oct 24, 2008",61.26,67.51,57.56,65.87,"9,175,400",31.70
"Oct 23, 2008",67.36,68.67,60.61,66.31,"9,998,800",31.91
"Oct 22, 2008",69.08,69.47,63.41,66.03,"7,468,400",31.78
"Oct 21, 2008",72.86,75.44,69.50,72.36,"10,182,000",34.83
"Oct 20, 2008",71.66,76.10,70.46,75.04,"12,704,000",36.12
"Oct 17, 2008",67.44,77.05,65.50,68.94,"14,720,800",33.18
"Oct 16, 2008",62.88,70.21,59.85,69.10,"15,549,200",33.26
"Oct 15, 2008",68.45,68.45,60.04,61.17,"13,485,800",29.44
"Oct 14, 2008",73.92,78.24,68.12,70.94,"14,933,000",34.08
"Oct 13, 2008",62.03,71.98,61.79,71.75,"11,410,000",34.47
"Oct 10, 2008",61.60,64.69,54.42,59.59,"17,851,600",28.63
"Oct 9, 2008",73.08,73.75,64.36,64.36,"10,513,800",30.92
"Oct 8, 2008",67.95,74.61,65.91,71.63,"14,790,200",34.41
"Oct 7, 2008",76.97,78.46,71.16,71.16,"12,350,400",34.18
"Oct 6, 2008",75.00,76.44,67.19,75.75,"16,439,600",36.39
"Oct 3, 2008",78.88,86.25,78.03,79.94,"8,929,600",38.40
"Oct 2, 2008",88.64,88.64,78.46,78.61,"9,799,800",37.76
"Oct 1, 2008",88.09,90.80,83.14,89.74,"8,002,000",43.11
"Sep 30, 2008",86.68,90.75,85.98,89.46,"7,051,600",42.97
"Sep 29, 2008",91.00,91.00,79.80,84.82,"10,754,000",40.74
"Sep 26, 2008",94.07,95.80,89.82,94.52,"5,871,400",45.40
"Sep 25, 2008",94.01,97.77,92.89,96.88,"5,791,400",46.54
"Sep 24, 2008",96.75,97.73,94.27,94.76,"5,818,400",45.52
"Sep 23, 2008",94.01,99.86,93.85,95.15,"9,694,000",45.71
"Sep 22, 2008",97.24,100.42,95.22,95.68,"7,158,400",45.96
"Sep 19, 2008",97.58,101.50,94.00,97.00,"11,028,400",46.60
"Sep 18, 2008",90.99,94.85,87.51,92.51,"11,436,400",44.44
"Sep 17, 2008",87.13,91.72,84.03,88.81,"15,636,400",42.66
"Sep 16, 2008",84.03,87.26,80.12,87.08,"12,354,400",41.83
"Sep 15, 2008",85.07,89.22,84.18,85.35,"12,568,800",41.00
"Sep 12, 2008",88.01,91.41,88.01,90.82,"8,002,400",43.63
"Sep 11, 2008",87.62,89.36,83.39,88.57,"11,355,400",42.55
"Sep 10, 2008",85.02,89.90,85.02,87.82,"15,704,000",42.19
"Sep 9, 2008",90.68,91.56,84.35,84.39,"11,614,000",40.54
"Sep 8, 2008",97.97,97.99,91.45,92.29,"11,080,600",44.33
"Sep 5, 2008",94.94,96.37,92.09,95.78,"9,791,400",46.01
"Sep 4, 2008",93.99,95.85,90.05,93.45,"9,738,800",44.89
"Sep 3, 2008",95.53,97.19,91.60,94.11,"10,270,800",45.21
"Sep 2, 2008",98.92,102.22,95.10,95.91,"9,066,400",46.07
"Aug 29, 2008",106.99,107.00,103.76,104.42,"5,687,600",50.16
"Aug 28, 2008",111.46,111.46,103.09,105.34,"7,273,400",50.60
"Aug 27, 2008",109.69,111.54,108.04,109.17,"5,658,800",52.44
"Aug 26, 2008",104.89,108.87,104.89,107.76,"9,409,800",51.76
"Aug 25, 2008",103.39,104.28,100.83,102.21,"4,941,800",49.10
"Aug 22, 2008",106.18,106.18,101.60,103.64,"5,172,000",49.79
"Aug 21, 2008",108.81,108.81,104.47,106.31,"6,794,600",51.07
"Aug 20, 2008",102.24,105.99,101.68,105.60,"10,557,800",50.73
"Aug 19, 2008",94.37,100.25,94.37,99.88,"8,332,200",47.98
"Aug 18, 2008",96.05,97.50,94.34,94.74,"6,152,400",45.51
"Aug 15, 2008",95.64,96.33,93.93,95.60,"5,758,600",45.92
"Aug 14, 2008",100.47,100.47,95.85,97.05,"7,023,400",46.62
"Aug 13, 2008",95.09,100.02,95.06,99.58,"5,845,200",47.83
"Aug 12, 2008",96.04,99.10,95.20,95.30,"8,546,800",45.78
"Aug 11, 2008",95.33,96.02,92.05,95.36,"6,465,000",45.81
"Aug 8, 2008",93.31,95.06,92.73,93.86,"7,011,200",45.09
"Aug 7, 2008",98.08,99.79,95.39,95.63,"10,104,000",45.94
"Aug 6, 2008",95.31,98.25,94.16,97.98,"8,380,400",47.07
"Aug 5, 2008",94.00,95.00,91.06,94.80,"10,808,600",45.54
"Aug 4, 2008",99.80,100.21,92.49,93.28,"8,485,600",44.81
"Aug 1, 2008",101.63,104.68,99.80,100.49,"7,621,800",48.27
"Jul 31, 2008",107.64,107.64,100.16,100.53,"8,917,600",48.29
"Jul 30, 2008",98.32,105.33,98.00,105.15,"10,114,400",50.51
"Jul 29, 2008",100.76,102.17,98.12,100.01,"10,397,600",48.04
"Jul 28, 2008",104.36,106.99,101.87,101.88,"6,589,000",48.94
"Jul 25, 2008",102.72,105.99,100.92,104.05,"7,666,400",49.98
"Jul 24, 2008",104.40,106.02,98.71,101.18,"11,492,400",48.60
"Jul 23, 2008",106.25,107.67,102.02,103.02,"9,418,800",49.49
"Jul 22, 2008",107.93,109.26,103.65,106.43,"10,187,400",51.13
"Jul 21, 2008",108.00,110.10,105.36,109.03,"6,666,400",52.37
"Jul 18, 2008",105.00,109.30,104.07,106.39,"6,814,600",51.11
"Jul 17, 2008",109.37,111.43,101.83,104.62,"12,262,600",50.26
"Jul 16, 2008",110.43,111.42,105.83,108.44,"10,839,200",52.09
"Jul 15, 2008",117.60,119.97,111.48,111.48,"8,590,600",53.55
"Jul 14, 2008",119.94,120.55,116.72,119.04,"5,798,800",57.13
"Jul 11, 2008",117.25,119.38,115.71,118.56,"8,638,800",56.89
"Jul 10, 2008",111.43,116.67,111.43,116.49,"6,451,200",55.90
"Jul 9, 2008",118.50,119.63,111.17,111.19,"7,468,600",53.36
"Jul 8, 2008",113.99,117.88,110.12,117.34,"12,393,000",56.31
"Jul 7, 2008",118.97,120.51,114.49,115.46,"8,925,800",55.41
"Jul 3, 2008",124.51,126.00,119.74,120.71,"6,923,400",57.93
"Jul 2, 2008",132.25,133.89,124.51,124.57,"6,968,800",59.78
"Jul 1, 2008",131.53,133.05,130.00,131.54,"6,209,400",63.12
"Jun 30, 2008",131.87,133.99,130.83,131.20,"6,402,600",62.96
"Jun 27, 2008",127.87,130.93,126.12,130.19,"8,619,400",62.48
"Jun 26, 2008",127.28,129.84,125.69,126.19,"7,803,000",60.56
"Jun 25, 2008",130.94,130.95,124.77,127.84,"5,142,000",61.35
"Jun 24, 2008",134.99,134.99,130.37,130.45,"5,647,600",62.60
"Jun 23, 2008",130.41,135.57,129.40,135.54,"6,867,800",65.04
"Jun 20, 2008",131.49,133.28,129.23,130.41,"7,226,600",62.58
"Jun 19, 2008",134.92,135.10,130.20,130.30,"7,175,600",62.53
"Jun 18, 2008",131.59,133.38,129.46,133.03,"5,273,600",63.84
"Jun 17, 2008",130.05,132.63,128.99,132.01,"6,102,000",63.35
"Jun 16, 2008",131.24,132.86,128.41,129.43,"5,533,000",62.11
"Jun 13, 2008",127.38,130.96,126.60,130.31,"5,475,800",62.53
"Jun 12, 2008",130.50,130.99,127.84,128.58,"7,605,200",61.70
"Jun 11, 2008",129.80,130.46,126.56,128.39,"5,755,400",61.61
"Jun 10, 2008",132.10,132.48,126.25,128.46,"6,793,400",61.65
"Jun 9, 2008",129.75,133.71,128.97,131.89,"6,195,200",63.29
"Jun 6, 2008",132.28,137.25,128.81,128.81,"8,541,800",61.81
"Jun 5, 2008",124.85,131.29,124.84,131.29,"9,276,800",63.00
"Jun 4, 2008",123.15,126.60,122.61,124.09,"7,362,000",59.55
"Jun 3, 2008",126.72,128.85,123.74,124.07,"9,217,600",59.54
"Jun 2, 2008",127.90,130.31,125.91,127.34,"8,510,800",61.11
"May 30, 2008",128.07,130.31,125.74,128.63,"10,141,200",61.73
"May 29, 2008",133.57,133.57,127.38,127.80,"8,126,200",61.33
"May 28, 2008",131.47,134.54,130.05,134.41,"6,607,600",64.50
"May 27, 2008",134.75,134.88,132.06,133.13,"4,115,600",63.89
"May 23, 2008",137.99,139.00,132.43,134.97,"5,563,600",64.77
"May 22, 2008",138.97,140.51,135.45,136.70,"5,573,600",65.60
"May 21, 2008",144.00,144.99,138.78,138.80,"9,443,600",66.61
"May 20, 2008",140.18,144.28,139.20,143.41,"6,687,200",68.82
"May 19, 2008",142.11,142.11,139.15,139.90,"6,753,800",67.14
"May 16, 2008",137.21,141.88,137.09,140.99,"7,097,800",67.66
"May 15, 2008",137.95,138.40,132.85,135.97,"6,917,000",65.25
"May 14, 2008",139.58,139.86,134.51,134.87,"5,093,600",64.72
"May 13, 2008",137.12,139.10,134.29,138.55,"5,588,200",66.49
"May 12, 2008",137.90,137.90,135.10,136.00,"5,652,600",65.26
"May 9, 2008",140.89,140.89,135.98,138.50,"5,142,800",66.46
"May 8, 2008",134.58,140.18,134.20,139.79,"6,648,800",67.08
"May 7, 2008",139.09,139.35,134.85,135.02,"5,714,000",64.79
"May 6, 2008",131.93,138.15,131.93,137.88,"5,217,800",66.17
"May 5, 2008",128.77,133.60,128.48,132.54,"4,265,000",63.60
"May 2, 2008",125.20,130.00,123.92,127.75,"5,951,000",61.31
"May 1, 2008",129.19,129.37,122.72,126.85,"6,962,400",60.87
"Apr 30, 2008",128.51,130.97,127.47,130.48,"5,297,800",62.62
"Apr 29, 2008",132.69,132.69,127.90,128.36,"5,658,200",61.60
"Apr 28, 2008",136.94,137.14,133.74,134.04,"3,865,600",64.32
"Apr 25, 2008",132.70,136.32,130.90,135.75,"5,411,400",65.14
"Apr 24, 2008",135.58,136.24,130.90,131.75,"4,683,200",63.22
"Apr 23, 2008",137.00,138.00,134.79,137.25,"4,503,400",65.86
"Apr 22, 2008",137.98,140.49,136.46,137.25,"3,912,000",65.86
"Apr 21, 2008",134.99,138.55,134.31,137.41,"6,487,800",65.94
"Apr 18, 2008",132.98,134.51,129.07,134.17,"4,208,800",64.39
"Apr 17, 2008",133.00,134.92,131.16,131.96,"4,820,800",63.33
"Apr 16, 2008",132.95,133.00,129.52,133.00,"4,610,600",63.82
"Apr 15, 2008",130.10,134.53,128.89,131.14,"4,734,800",62.93
"Apr 14, 2008",126.49,129.63,126.49,127.89,"4,813,200",61.37
"Apr 11, 2008",128.35,129.19,125.69,126.32,"4,802,600",60.56
"Apr 10, 2008",127.45,130.47,127.45,129.82,"5,323,400",62.24
"Apr 9, 2008",127.77,130.00,126.64,127.69,"5,523,600",61.22
"Apr 8, 2008",125.25,129.44,125.25,128.76,"4,850,800",61.73
"Apr 7, 2008",124.94,128.57,124.29,126.18,"6,066,600",60.49
"Apr 4, 2008",122.67,125.30,122.11,123.78,"3,856,200",59.34
"Apr 3, 2008",120.40,123.60,120.40,121.44,"4,706,400",58.22
"Apr 2, 2008",121.29,123.68,118.74,121.36,"4,716,800",58.18
"Apr 1, 2008",121.22,121.73,117.76,120.87,"4,579,800",57.95
"Mar 31, 2008",120.54,121.94,117.50,120.00,"4,462,000",57.53
"Mar 28, 2008",119.00,120.83,117.52,118.88,"3,796,800",56.99
"Mar 27, 2008",120.37,122.88,117.86,117.92,"4,897,000",56.53
"Mar 26, 2008",115.76,121.56,115.76,120.41,"6,711,000",57.73
"Mar 25, 2008",114.78,117.75,113.45,116.22,"5,086,000",55.72
"Mar 24, 2008",112.95,115.91,111.42,114.01,"5,960,000",54.66
"Mar 20, 2008",110.00,113.12,105.90,112.27,"12,264,200",53.83
"Mar 19, 2008",122.86,125.15,112.94,113.12,"10,194,200",54.23
"Mar 18, 2008",123.43,123.50,120.82,123.47,"6,946,000",59.19
"Mar 17, 2008",123.35,124.17,117.20,120.41,"7,852,400",57.73
"Mar 14, 2008",126.23,126.98,123.04,126.10,"8,327,400",60.46
"Mar 13, 2008",117.48,128.15,117.48,126.96,"10,660,200",60.87
"Mar 12, 2008",121.75,122.19,117.32,118.93,"5,773,800",57.02
"Mar 11, 2008",116.77,122.22,116.08,121.90,"7,937,600",58.44
"Mar 10, 2008",116.46,116.46,113.54,114.56,"7,074,600",54.92
"Mar 7, 2008",116.45,118.43,114.96,116.46,"8,168,200",55.83
"Mar 6, 2008",119.78,120.74,117.33,117.61,"7,266,000",56.39
"Mar 5, 2008",120.99,121.63,119.18,120.61,"9,227,600",57.82
"Mar 4, 2008",120.00,122.47,116.60,119.90,"10,105,600",57.48
"Mar 3, 2008",119.07,123.47,118.04,122.17,"10,478,200",58.57
"Feb 29, 2008",123.13,123.89,117.93,118.99,"10,887,000",57.05
"Feb 28, 2008",112.74,129.90,112.55,124.73,"32,843,600",59.80
"Feb 27, 2008",106.51,108.14,105.47,105.68,"6,534,800",50.67
"Feb 26, 2008",103.84,108.92,102.37,108.23,"13,196,000",51.89
"Feb 25, 2008",100.02,104.67,100.02,104.13,"9,753,400",49.92
"Feb 22, 2008",97.88,99.56,96.97,99.35,"4,145,000",47.63
"Feb 21, 2008",100.90,100.90,97.46,97.67,"5,600,800",46.83
"Feb 20, 2008",97.05,100.98,97.05,100.52,"5,369,800",48.19
"Feb 19, 2008",98.28,100.95,96.64,98.41,"7,992,000",47.18
"Feb 15, 2008",97.06,98.79,93.80,96.03,"6,757,400",46.04
"Feb 14, 2008",98.87,100.48,97.62,97.62,"7,077,000",46.80
"Feb 13, 2008",98.87,100.75,98.61,100.15,"7,314,800",48.01
"Feb 12, 2008",98.84,100.50,96.78,97.93,"8,002,000",46.95
"Feb 11, 2008",93.70,98.54,93.14,98.43,"10,868,000",47.19
"Feb 8, 2008",91.38,95.31,91.25,94.12,"8,510,400",45.12
"Feb 7, 2008",87.12,91.00,87.12,90.09,"7,087,000",43.19
"Feb 6, 2008",88.84,89.70,87.19,87.82,"6,161,800",42.10
"Feb 5, 2008",88.17,90.04,87.50,87.50,"5,634,600",41.95
"Feb 4, 2008",89.12,91.03,88.86,90.66,"3,821,000",43.46
"Feb 1, 2008",87.42,89.45,86.87,89.45,"5,501,800",42.88
"Jan 31, 2008",84.89,88.12,83.68,87.33,"5,017,000",41.87
"Jan 30, 2008",84.48,88.97,84.48,86.56,"5,721,000",41.50
"Jan 29, 2008",85.75,86.25,84.12,85.02,"3,731,400",40.76
"Jan 28, 2008",83.93,85.41,82.53,85.41,"4,067,800",40.95
"Jan 25, 2008",86.25,87.42,83.36,83.98,"5,707,400",40.26
"Jan 24, 2008",83.99,86.15,82.74,85.59,"6,353,200",41.03
"Jan 23, 2008",81.42,82.94,77.18,82.66,"8,238,800",39.63
"Jan 22, 2008",82.11,85.10,79.50,83.46,"7,500,200",40.01
"Jan 18, 2008",84.44,86.38,83.22,85.13,"7,699,400",40.81
"Jan 17, 2008",88.72,90.67,83.99,83.99,"7,025,000",40.27
"Jan 16, 2008",90.62,91.84,87.95,88.61,"10,414,200",42.48
"Jan 15, 2008",91.25,92.95,90.39,90.99,"6,582,200",43.62
"Jan 14, 2008",89.47,93.56,89.47,93.17,"5,735,600",44.63
"Jan 11, 2008",87.89,89.54,87.57,88.93,"5,747,200",42.59
"Jan 10, 2008",88.33,89.52,87.18,89.02,"5,305,000",42.64
"Jan 9, 2008",87.25,89.52,87.25,89.18,"6,048,000",42.71
"Jan 8, 2008",89.22,90.78,86.68,86.87,"3,996,800",41.61
"Jan 7, 2008",89.70,90.53,87.14,88.62,"4,844,400",42.45
"Jan 4, 2008",92.21,92.21,88.81,88.97,"5,684,200",42.61
"Jan 3, 2008",91.30,94.36,91.11,93.18,"5,088,600",44.63
"Jan 2, 2008",90.00,92.00,90.00,91.29,"4,804,000",43.72
"Dec 31, 2007",90.71,91.33,89.09,89.25,"2,002,400",42.75
"Dec 28, 2007",89.92,91.22,89.69,90.92,"2,934,400",43.55
"Dec 27, 2007",90.08,90.81,89.55,89.62,"2,414,000",42.92
"Dec 26, 2007",90.79,91.26,90.12,90.28,"3,602,600",43.24
"Dec 24, 2007",89.71,91.45,89.71,91.02,"1,159,400",43.60
"Dec 21, 2007",90.45,90.80,89.86,90.43,"4,232,600",43.31
"Dec 20, 2007",88.98,89.97,88.36,89.70,"3,012,200",42.96
"Dec 19, 2007",87.99,89.16,87.32,88.31,"3,174,000",42.30
"Dec 18, 2007",88.79,88.90,86.65,87.35,"4,456,800",41.84
"Dec 17, 2007",88.14,89.05,86.80,87.33,"3,511,600",41.83
"Dec 14, 2007",89.95,90.14,88.29,88.35,"4,926,800",42.32
"Dec 13, 2007",89.81,91.63,89.08,90.43,"5,781,400",43.31
"Dec 12, 2007",89.93,91.45,89.51,90.89,"5,423,200",43.53
"Dec 11, 2007",89.00,90.27,87.82,87.97,"6,193,400",42.13
"Dec 10, 2007",88.23,89.00,87.68,88.72,"3,757,200",42.49
"Dec 7, 2007",89.16,89.71,87.06,88.16,"5,146,400",42.23
"Dec 6, 2007",85.21,89.22,84.94,88.82,"5,785,000",42.54
"Dec 5, 2007",83.76,85.66,83.42,85.24,"5,116,600",40.83
"Dec 4, 2007",82.92,83.25,81.57,82.77,"4,266,800",39.64
"Dec 3, 2007",82.50,83.60,81.85,82.81,"3,298,000",39.66
"Nov 30, 2007",82.50,84.03,82.00,82.78,"4,547,400",39.65
"Nov 29, 2007",83.63,84.86,82.65,83.21,"4,059,600",39.85
"Nov 28, 2007",82.95,83.86,81.65,83.69,"5,163,000",40.08
"Nov 27, 2007",81.23,82.63,80.79,82.50,"4,304,000",39.51
"Nov 26, 2007",84.15,85.26,82.90,82.90,"3,476,800",39.71
"Nov 23, 2007",82.78,84.03,82.09,83.64,"2,136,600",40.06
"Nov 21, 2007",83.10,83.86,82.00,82.45,"4,138,400",39.49
"Nov 20, 2007",84.46,85.09,82.86,83.72,"6,524,200",40.10
"Nov 19, 2007",85.02,85.90,83.78,83.98,"4,170,000",40.22
"Nov 16, 2007",85.38,86.66,84.53,85.28,"7,882,800",40.85
"Nov 15, 2007",87.08,87.17,84.18,85.10,"5,589,400",40.76
"Nov 14, 2007",87.25,89.82,86.60,87.25,"5,638,600",41.79
"Nov 13, 2007",84.83,85.82,82.78,85.66,"6,122,800",41.03
"Nov 12, 2007",85.75,86.17,82.76,84.29,"6,947,600",40.37
"Nov 9, 2007",87.13,88.31,86.35,87.41,"6,296,000",41.87
"Nov 8, 2007",86.80,89.55,86.14,88.12,"6,224,200",42.21
"Nov 7, 2007",88.10,89.10,86.70,86.70,"5,142,600",41.53
"Nov 6, 2007",88.39,90.73,87.60,88.47,"6,129,800",42.37
"Nov 5, 2007",86.75,87.51,83.80,87.00,"4,024,800",41.67
"Nov 2, 2007",87.47,87.95,86.06,87.47,"4,934,400",41.89
"Nov 1, 2007",87.47,88.50,85.99,86.60,"7,817,200",41.48
"Oct 31, 2007",86.87,89.71,86.30,88.60,"9,933,000",42.44
"Oct 30, 2007",84.09,86.32,83.93,85.95,"15,344,200",41.17
"Oct 29, 2007",82.49,82.74,81.78,82.51,"4,727,200",39.52
"Oct 26, 2007",82.26,82.93,80.77,81.91,"3,447,800",39.23
"Oct 25, 2007",78.87,81.07,78.87,80.77,"4,804,000",38.69
"Oct 24, 2007",77.32,79.05,76.37,78.55,"5,423,000",37.62
"Oct 23, 2007",79.26,79.78,76.87,77.43,"7,499,600",37.09
"Oct 22, 2007",77.89,78.48,76.50,78.39,"6,761,800",37.55
"Oct 19, 2007",81.88,82.05,79.66,79.80,"7,995,200",38.22
"Oct 18, 2007",81.46,82.72,81.30,82.17,"5,510,400",39.36
"Oct 17, 2007",82.00,82.55,80.90,81.52,"4,949,400",39.05
"Oct 16, 2007",81.65,82.30,81.27,81.68,"4,058,800",39.12
"Oct 15, 2007",82.15,83.28,81.10,81.66,"4,501,800",39.11
"Oct 12, 2007",80.41,81.86,80.22,81.37,"3,388,600",38.93
"Oct 11, 2007",79.93,82.60,79.81,80.90,"8,131,400",38.71
"Oct 10, 2007",77.83,80.00,77.63,79.55,"4,317,400",38.06
"Oct 9, 2007",77.10,78.84,76.67,78.26,"4,385,800",37.44
"Oct 8, 2007",76.55,77.28,76.06,76.51,"2,476,600",36.60
"Oct 5, 2007",76.41,77.90,76.24,77.41,"5,901,800",37.04
"Oct 4, 2007",74.62,77.00,74.08,76.55,"5,592,800",36.62
"Oct 3, 2007",74.34,74.92,73.71,74.48,"3,713,600",35.63
"Oct 2, 2007",72.79,75.54,72.72,74.70,"4,293,000",35.74
"Oct 1, 2007",72.41,73.41,72.20,73.27,"3,361,600",35.05
"Sep 28, 2007",72.80,73.09,71.91,72.33,"3,145,400",34.61
"Sep 27, 2007",73.00,73.13,71.64,72.38,"4,667,800",34.63
"Sep 26, 2007",73.45,73.95,71.70,72.37,"5,607,600",34.62
"Sep 25, 2007",72.95,73.25,71.63,72.87,"3,434,800",34.86
"Sep 24, 2007",74.40,74.87,73.27,73.76,"3,329,400",35.29
"Sep 21, 2007",74.62,75.25,73.83,74.49,"3,423,400",35.64
"Sep 20, 2007",73.86,74.36,73.18,73.83,"3,412,400",35.32
"Sep 19, 2007",74.70,74.99,73.78,74.22,"4,609,200",35.51
"Sep 18, 2007",72.00,73.93,70.79,73.85,"5,216,200",35.33
"Sep 17, 2007",72.57,72.81,71.57,71.85,"2,919,800",34.38
"Sep 14, 2007",71.01,72.65,71.01,72.35,"3,454,200",34.61
"Sep 13, 2007",72.45,72.77,71.46,71.72,"4,186,400",34.31
"Sep 12, 2007",71.60,73.46,71.41,72.52,"7,509,600",34.70
"Sep 11, 2007",70.41,71.54,69.19,71.29,"5,166,800",34.11
"Sep 10, 2007",69.80,70.55,68.41,70.32,"5,581,800",33.64
"Sep 7, 2007",70.07,70.27,69.05,69.90,"5,285,800",33.44
"Sep 6, 2007",69.66,71.59,69.66,70.70,"6,774,800",33.83
"Sep 5, 2007",69.12,70.16,69.00,69.39,"4,854,000",33.20
"Sep 4, 2007",67.36,69.85,66.86,69.13,"4,291,600",33.07
"Aug 31, 2007",67.41,68.43,67.26,67.36,"3,538,200",32.23
"Aug 30, 2007",66.72,67.98,66.10,66.74,"4,313,600",31.93
"Aug 29, 2007",66.26,66.98,65.55,66.72,"3,270,400",31.92
"Aug 28, 2007",66.36,66.66,65.29,65.70,"4,246,000",31.43
"Aug 27, 2007",67.61,67.61,66.45,66.84,"3,253,600",31.98
"Aug 24, 2007",67.60,68.20,66.92,67.89,"3,332,800",32.48
"Aug 23, 2007",67.40,67.77,65.92,67.07,"4,843,800",32.09
"Aug 22, 2007",68.80,68.98,66.22,66.70,"7,774,400",31.91
"Aug 21, 2007",69.17,69.71,67.51,68.09,"5,663,400",32.58
"Aug 20, 2007",69.86,70.85,68.51,69.78,"6,122,000",33.39
"Aug 17, 2007",70.16,72.06,69.38,71.58,"6,786,000",34.25
"Aug 16, 2007",67.50,69.48,65.60,69.00,"9,662,400",33.01
"Aug 15, 2007",71.03,71.86,68.36,68.68,"5,777,200",32.86
"Aug 14, 2007",71.20,72.14,70.20,70.34,"4,240,000",33.65
"Aug 13, 2007",72.45,73.00,71.46,71.49,"5,616,600",34.20
"Aug 10, 2007",71.00,72.48,69.45,71.99,"8,231,000",34.44
"Aug 9, 2007",72.01,75.83,71.09,73.13,"7,807,400",34.99
"Aug 8, 2007",73.00,75.45,72.41,73.25,"8,064,200",35.05
"Aug 7, 2007",70.74,72.42,69.35,71.99,"9,374,600",34.44
"Aug 6, 2007",70.36,70.74,67.72,70.52,"7,103,600",33.74
"Aug 3, 2007",71.80,73.53,70.23,70.47,"8,473,800",33.72
"Aug 2, 2007",72.44,74.30,71.16,73.14,"8,551,600",34.99
"Aug 1, 2007",70.64,72.44,69.27,71.59,"7,433,000",34.25
"Jul 31, 2007",72.25,72.55,69.88,70.10,"5,929,800",33.54
"Jul 30, 2007",69.75,71.69,69.59,71.09,"6,836,600",34.01
"Jul 27, 2007",69.95,71.07,68.41,69.11,"6,565,800",33.06
"Jul 26, 2007",70.86,71.13,68.30,69.95,"7,927,400",33.47
"Jul 25, 2007",69.90,71.47,68.99,71.24,"5,748,000",34.08
"Jul 24, 2007",71.15,71.44,69.91,70.28,"6,810,400",33.62
"Jul 23, 2007",73.61,73.61,71.40,72.09,"9,631,600",34.49
"Jul 20, 2007",76.45,76.92,74.72,75.03,"5,982,200",35.90
"Jul 19, 2007",75.55,76.43,74.95,76.20,"4,903,200",36.46
"Jul 18, 2007",72.23,75.33,72.20,75.13,"7,249,000",35.94
"Jul 17, 2007",73.74,74.35,72.53,72.69,"4,450,400",34.78
"Jul 16, 2007",74.63,74.86,72.11,73.05,"4,870,400",34.95
"Jul 13, 2007",74.08,75.50,73.55,74.91,"3,655,800",35.84
"Jul 12, 2007",74.98,75.26,73.65,74.59,"4,078,800",35.64
"Jul 11, 2007",73.15,74.57,73.15,74.42,"5,195,800",35.56
"Jul 10, 2007",74.06,75.46,73.82,74.16,"5,443,400",35.44
"Jul 9, 2007",74.53,75.50,74.06,74.57,"4,418,000",35.63
"Jul 6, 2007",75.50,75.94,74.76,74.94,"5,190,400",35.81
"Jul 5, 2007",74.00,75.31,73.80,74.66,"4,933,800",35.68
"Jul 3, 2007",72.50,75.19,72.43,74.68,"2,873,600",35.69
"Jul 2, 2007",73.42,74.13,72.59,74.13,"5,644,600",35.42
"Jun 29, 2007",72.21,74.70,72.21,73.06,"9,076,800",34.91
"Jun 28, 2007",74.12,74.84,71.86,72.45,"7,101,000",34.62
"Jun 27, 2007",71.56,73.92,71.33,73.86,"6,704,400",35.29
"Jun 26, 2007",75.91,76.14,72.20,72.66,"7,102,400",34.72
"Jun 25, 2007",75.21,75.49,73.67,74.43,"10,015,600",35.57
"Jun 22, 2007",78.10,78.60,75.38,76.62,"6,998,800",36.61
"Jun 21, 2007",77.84,78.98,77.06,78.90,"4,434,600",37.70
"Jun 20, 2007",79.70,80.40,76.61,76.78,"5,000,400",36.69
"Jun 19, 2007",79.95,80.14,79.28,79.45,"3,585,800",37.97
"Jun 18, 2007",81.39,81.49,80.11,80.26,"3,391,800",38.35
"Jun 15, 2007",80.29,80.72,79.32,80.49,"4,786,000",38.46
"Jun 14, 2007",77.61,80.25,77.53,80.01,"6,009,000",38.23
"Jun 13, 2007",76.10,77.68,76.05,77.45,"4,003,400",37.01
"Jun 12, 2007",75.66,77.23,75.06,75.81,"4,479,000",36.23
"Jun 11, 2007",75.30,76.37,74.81,75.66,"2,862,600",36.15
"Jun 8, 2007",74.14,75.38,73.41,75.34,"4,044,600",36.00
"Jun 7, 2007",76.08,77.56,74.66,74.89,"4,966,200",35.79
"Jun 6, 2007",79.18,79.18,76.00,76.44,"4,197,600",36.53
"Jun 5, 2007",78.20,78.68,77.60,77.94,"3,795,600",37.24
"Jun 4, 2007",76.62,79.10,76.52,78.91,"3,702,800",37.71
"Jun 1, 2007",77.91,78.25,76.93,77.14,"4,897,600",36.86
"May 31, 2007",78.32,78.50,76.76,76.90,"4,276,000",36.75
"May 30, 2007",77.50,77.86,75.38,77.72,"4,267,400",37.14
"May 29, 2007",76.40,76.70,74.95,75.83,"3,769,200",36.24
"May 25, 2007",76.80,77.20,75.74,76.61,"4,269,800",36.61
"May 24, 2007",78.99,79.10,75.46,75.82,"4,292,000",36.23
"May 23, 2007",77.40,79.15,77.27,77.52,"3,939,200",37.04
"May 22, 2007",78.53,79.05,77.38,77.53,"3,319,200",37.05
"May 21, 2007",78.73,79.21,77.83,78.53,"5,096,600",37.53
"May 18, 2007",75.55,78.59,75.55,78.47,"4,742,800",37.50
"May 17, 2007",75.80,77.32,74.80,76.70,"5,047,400",36.65
"May 16, 2007",76.05,76.30,74.63,75.65,"5,004,200",36.15
"May 15, 2007",76.81,77.26,75.56,75.80,"4,159,400",36.22
"May 14, 2007",76.14,77.65,76.06,77.11,"4,744,600",36.85
"May 11, 2007",75.54,76.01,74.61,75.91,"3,904,600",36.27
"May 10, 2007",75.73,76.38,74.30,74.54,"3,870,000",35.62
"May 9, 2007",76.69,76.88,75.27,75.94,"4,868,400",36.29
"May 8, 2007",76.62,76.82,74.94,76.75,"5,317,800",36.68
"May 7, 2007",76.62,77.48,76.46,77.13,"3,128,200",36.86
"May 4, 2007",78.13,78.66,76.66,76.92,"3,818,000",36.76
"May 3, 2007",77.27,78.14,76.60,78.02,"5,868,000",37.28
"May 2, 2007",75.92,77.60,75.70,77.41,"4,670,800",36.99
"May 1, 2007",74.73,77.32,73.80,75.78,"11,027,800",36.21
"Apr 30, 2007",74.13,75.22,73.44,73.44,"4,358,400",35.09
"Apr 27, 2007",74.15,74.97,73.80,74.25,"3,621,200",35.48
"Apr 26, 2007",74.90,75.01,73.76,74.50,"4,582,600",35.60
"Apr 25, 2007",74.75,76.13,74.62,75.40,"4,303,400",36.03
"Apr 24, 2007",74.36,74.72,73.93,74.39,"3,488,800",35.55
"Apr 23, 2007",72.86,74.54,72.82,74.21,"3,109,600",35.46
"Apr 20, 2007",73.58,74.37,73.00,73.98,"6,147,000",35.35
"Apr 19, 2007",74.39,74.39,73.04,73.48,"4,947,800",35.11
"Apr 18, 2007",75.58,75.58,74.50,74.65,"6,335,800",35.67
"Apr 17, 2007",77.50,77.71,75.58,75.91,"5,842,200",36.27
"Apr 16, 2007",76.83,77.45,75.59,77.35,"4,270,400",36.96
"Apr 13, 2007",76.98,77.60,76.51,76.98,"3,767,400",36.79
"Apr 12, 2007",75.82,77.17,75.33,77.16,"3,814,800",36.87
"Apr 11, 2007",74.19,76.20,74.19,75.21,"3,712,600",35.90
"Apr 10, 2007",74.60,76.05,74.45,75.91,"4,532,200",36.23
"Apr 9, 2007",74.85,75.86,74.11,74.39,"4,215,400",35.51
"Apr 5, 2007",74.05,74.89,73.70,74.75,"4,949,400",35.68
"Apr 4, 2007",72.54,74.45,72.27,74.15,"6,272,600",35.39
"Apr 3, 2007",71.75,73.07,71.15,73.07,"3,660,400",34.88
"Apr 2, 2007",71.48,72.79,71.34,72.60,"3,459,600",34.65
"Mar 30, 2007",71.96,71.96,71.00,71.34,"5,818,200",34.05
"Mar 29, 2007",72.25,72.40,71.35,71.87,"3,564,800",34.30
"Mar 28, 2007",73.00,73.09,71.10,71.67,"5,022,200",34.21
"Mar 27, 2007",72.03,72.63,71.47,71.97,"5,519,000",34.35
"Mar 26, 2007",71.99,72.60,70.81,72.48,"5,352,800",34.59
"Mar 23, 2007",71.26,71.66,70.68,71.45,"4,214,400",34.10
"Mar 22, 2007",70.50,71.87,70.23,71.20,"6,851,800",33.98
"Mar 21, 2007",68.24,70.00,68.05,69.72,"7,003,600",33.28
"Mar 20, 2007",67.30,68.03,66.75,67.93,"4,280,400",32.42
"Mar 19, 2007",66.44,66.92,66.01,66.78,"3,194,600",31.87
"Mar 16, 2007",66.90,67.05,65.30,65.64,"5,571,600",31.33
"Mar 15, 2007",67.20,67.60,66.55,66.73,"2,961,400",31.85
"Mar 14, 2007",66.45,67.41,65.60,67.39,"5,077,800",32.16
"Mar 13, 2007",66.08,68.03,65.69,65.87,"5,643,200",31.44
"Mar 12, 2007",66.39,66.48,65.75,66.12,"3,912,600",31.56
"Mar 9, 2007",67.39,67.75,66.52,66.91,"2,607,800",31.94
"Mar 8, 2007",67.55,67.97,66.62,66.97,"4,149,000",31.96
"Mar 7, 2007",66.18,68.30,65.83,67.21,"5,459,200",32.08
"Mar 6, 2007",65.60,66.20,65.22,66.20,"5,358,400",31.60
"Mar 5, 2007",64.77,65.85,64.00,64.80,"5,663,800",30.93
"Mar 2, 2007",66.84,67.22,65.70,65.92,"4,252,000",31.46
"Mar 1, 2007",66.37,67.94,65.97,67.05,"5,433,000",32.00
"Feb 28, 2007",67.76,68.30,66.66,67.74,"5,409,600",32.33
"Feb 27, 2007",67.97,69.82,66.75,67.60,"5,900,400",32.26
"Feb 26, 2007",68.40,69.75,68.27,69.58,"5,483,800",33.21
"Feb 23, 2007",69.01,69.17,67.46,67.86,"3,750,400",32.39
"Feb 22, 2007",67.72,68.80,67.33,68.51,"5,587,200",32.70
"Feb 21, 2007",66.61,67.62,65.82,67.30,"4,177,400",32.12
"Feb 20, 2007",66.40,66.62,66.00,66.40,"4,883,800",31.69
"Feb 16, 2007",65.94,67.53,65.91,67.00,"6,502,800",31.98
"Feb 15, 2007",65.80,66.10,64.71,65.79,"5,802,600",31.40
"Feb 14, 2007",65.99,66.67,65.60,66.12,"4,305,600",31.56
"Feb 13, 2007",65.99,66.17,65.08,65.77,"5,973,600",31.39
"Feb 12, 2007",65.67,66.16,64.40,65.04,"4,772,600",31.04
"Feb 9, 2007",66.84,67.62,66.28,66.57,"3,502,000",31.77
"Feb 8, 2007",66.55,66.81,65.56,66.61,"6,008,800",31.79
"Feb 7, 2007",67.15,67.71,65.96,66.55,"4,512,000",31.76
"Feb 6, 2007",68.91,68.93,66.69,67.14,"5,581,400",32.04
"Feb 5, 2007",68.86,69.74,67.86,67.95,"5,881,000",32.43
"Feb 2, 2007",69.42,69.54,68.04,68.69,"5,581,200",32.78
"Feb 1, 2007",69.50,69.95,68.10,69.59,"10,007,600",33.21
"Jan 31, 2007",66.70,69.75,66.33,69.13,"8,264,800",32.99
"Jan 30, 2007",65.03,68.47,65.03,68.06,"7,449,400",32.48
"Jan 29, 2007",66.17,67.49,64.95,65.03,"5,342,000",31.04
"Jan 26, 2007",65.60,66.27,65.09,65.57,"4,264,000",31.30
"Jan 25, 2007",67.09,67.09,64.78,64.96,"6,689,200",31.00
"Jan 24, 2007",66.83,67.41,65.69,67.36,"5,309,800",32.15
"Jan 23, 2007",65.57,68.11,65.53,67.49,"7,264,200",32.21
"Jan 22, 2007",65.50,66.45,64.37,64.93,"8,496,400",30.99
"Jan 19, 2007",62.40,64.87,62.13,64.73,"6,780,000",30.89
"Jan 18, 2007",62.51,62.70,61.20,61.70,"4,997,000",29.45
"Jan 17, 2007",61.91,62.82,61.74,62.17,"6,105,000",29.67
"Jan 16, 2007",62.12,63.09,61.51,62.03,"6,056,600",29.61
"Jan 12, 2007",60.00,62.44,59.98,62.28,"7,472,000",29.73
"Jan 11, 2007",62.07,62.08,59.71,59.96,"9,170,600",28.59
"Jan 10, 2007",61.25,61.61,60.02,60.98,"7,194,400",29.08
"Jan 9, 2007",61.00,61.89,60.12,61.45,"10,820,800",29.30
"Jan 8, 2007",63.86,64.00,61.29,62.25,"8,059,600",29.68
"Jan 5, 2007",61.30,63.00,60.90,62.68,"13,043,600",29.89
"Jan 4, 2007",61.72,61.87,59.76,60.70,"11,306,200",28.94
"Jan 3, 2007",61.81,63.47,59.21,60.66,"11,005,800",28.92
"Dec 29, 2006",63.25,63.60,61.87,62.45,"5,953,800",29.78
"Dec 28, 2006",64.00,64.38,63.31,63.68,"3,759,400",30.36
"Dec 27, 2006",63.16,63.90,62.33,63.67,"5,196,400",30.36
"Dec 26, 2006",63.10,64.86,62.94,63.16,"3,400,000",30.12
"Dec 22, 2006",65.00,65.08,64.21,64.31,"3,027,800",30.66
"Dec 21, 2006",65.40,65.67,64.28,65.00,"4,775,200",30.99
"Dec 20, 2006",66.58,66.58,64.89,65.01,"4,978,000",31.00
"Dec 19, 2006",63.30,67.11,63.30,66.43,"4,960,600",31.67
"Dec 18, 2006",67.90,67.90,65.12,65.48,"6,180,800",31.22
"Dec 15, 2006",69.82,69.96,67.94,68.62,"5,559,800",32.72
"Dec 14, 2006",69.07,70.17,68.58,69.82,"6,303,600",33.29
"Dec 13, 2006",68.92,69.31,68.04,68.63,"3,883,400",32.72
"Dec 12, 2006",68.42,69.17,67.72,68.27,"4,375,400",32.55
"Dec 11, 2006",68.51,69.10,67.54,68.39,"4,366,400",32.61
"Dec 8, 2006",69.45,69.65,68.39,68.67,"4,227,600",32.74
"Dec 7, 2006",69.35,69.67,68.52,68.94,"3,881,600",32.87
"Dec 6, 2006",68.90,70.55,68.90,69.35,"4,714,400",33.07
"Dec 5, 2006",69.56,69.93,68.63,69.33,"6,123,000",33.06
"Dec 4, 2006",69.75,70.11,68.48,69.17,"5,264,000",32.98
"Dec 1, 2006",69.91,70.72,68.86,70.63,"5,826,000",33.68
"Nov 30, 2006",71.20,71.40,69.66,70.53,"11,025,200",33.63
"Nov 29, 2006",71.50,72.27,69.55,72.06,"12,554,000",34.36
"Nov 28, 2006",69.18,71.42,69.18,70.97,"7,712,000",33.84
"Nov 27, 2006",69.92,70.13,68.90,68.93,"5,107,800",32.87
"Nov 24, 2006",69.70,70.68,69.47,69.47,"2,045,600",33.12
"Nov 22, 2006",69.55,69.81,68.30,69.56,"6,498,800",33.17
"Nov 21, 2006",68.38,69.73,67.99,69.55,"8,574,200",33.16
"Nov 20, 2006",67.83,68.51,67.04,68.22,"5,787,000",32.53
"Nov 17, 2006",65.50,68.50,65.50,68.30,"7,047,200",32.57
"Nov 16, 2006",69.14,69.43,65.73,65.93,"6,257,600",31.44
"Nov 15, 2006",67.26,69.04,67.22,68.47,"6,791,800",32.65
"Nov 14, 2006",67.63,67.83,66.99,67.67,"4,909,400",32.27
"Nov 13, 2006",66.13,67.96,66.13,66.96,"4,694,200",31.93
"Nov 10, 2006",68.40,68.49,66.76,67.46,"4,929,400",32.17
"Nov 9, 2006",68.46,69.98,67.81,69.21,"9,937,200",33.00
"Nov 8, 2006",66.00,67.96,65.92,67.65,"5,296,200",32.26
"Nov 7, 2006",67.26,67.28,65.94,66.25,"5,683,800",31.59
"Nov 6, 2006",66.47,67.73,65.95,66.89,"5,471,800",31.89
"Nov 3, 2006",66.70,68.13,66.44,67.13,"5,336,600",32.01
"Nov 2, 2006",65.30,66.37,64.58,65.75,"6,731,400",31.35
"Nov 1, 2006",66.25,66.75,65.08,66.02,"6,996,800",31.48
"Oct 31, 2006",66.90,67.33,65.05,66.53,"8,793,800",31.72
"Oct 30, 2006",67.22,68.11,66.50,67.00,"7,219,400",31.95
"Oct 27, 2006",69.09,70.07,67.87,68.01,"4,702,400",32.43
"Oct 26, 2006",71.00,71.07,68.49,69.34,"6,222,200",33.06
"Oct 25, 2006",67.25,70.81,67.13,70.34,"8,088,400",33.54
"Oct 24, 2006",65.91,69.08,65.77,68.93,"8,575,400",32.87
"Oct 23, 2006",65.72,66.46,65.02,66.11,"6,230,200",31.52
"Oct 20, 2006",67.38,67.41,65.32,66.25,"5,871,600",31.59
"Oct 19, 2006",66.43,67.41,65.54,67.26,"7,091,400",32.07
"Oct 18, 2006",66.01,66.89,65.26,66.06,"7,638,200",31.50
"Oct 17, 2006",66.98,67.06,65.35,66.20,"6,922,400",31.56
"Oct 16, 2006",64.95,67.54,64.94,67.23,"8,365,800",32.06
"Oct 13, 2006",63.99,65.66,63.93,64.94,"7,347,000",30.96
"Oct 12, 2006",62.60,64.00,62.37,63.71,"7,916,400",30.35
"Oct 11, 2006",63.25,63.72,62.23,62.30,"8,858,200",29.68
"Oct 10, 2006",62.59,64.65,62.48,63.70,"8,007,200",30.34
"Oct 9, 2006",63.80,64.66,62.57,62.82,"6,473,400",29.92
"Oct 6, 2006",63.10,63.67,61.90,63.31,"7,160,600",30.16
"Oct 5, 2006",64.19,64.64,62.33,63.48,"10,195,600",30.24
"Oct 4, 2006",62.10,63.13,59.88,62.95,"14,367,400",29.99
"Oct 3, 2006",63.00,63.09,61.83,62.10,"11,802,000",29.58
"Oct 2, 2006",65.30,65.84,64.35,64.55,"8,924,200",30.75
"Sep 29, 2006",64.90,65.70,63.98,65.05,"10,080,800",30.99
"Sep 28, 2006",65.05,65.76,63.89,63.89,"10,683,400",30.43
"Sep 27, 2006",64.56,65.46,63.40,65.30,"9,525,000",31.11
"Sep 26, 2006",63.00,64.52,62.51,64.21,"10,064,400",30.59
"Sep 25, 2006",61.55,63.44,60.70,63.30,"11,052,400",30.15
"Sep 22, 2006",62.70,62.91,61.17,62.19,"8,531,200",29.62
"Sep 21, 2006",61.20,63.94,61.17,62.50,"10,812,200",29.77
"Sep 20, 2006",61.23,62.17,60.30,60.99,"9,866,600",29.05
"Sep 19, 2006",62.70,63.21,60.94,61.90,"8,160,000",29.49
"Sep 18, 2006",60.80,63.88,60.78,62.69,"11,490,600",29.86
"Sep 15, 2006",59.15,60.00,58.60,59.84,"7,891,000",28.51
"Sep 14, 2006",60.96,61.55,58.49,58.72,"7,511,800",27.97
"Sep 13, 2006",59.71,61.69,59.71,60.78,"8,156,000",28.95
"Sep 12, 2006",59.88,60.71,59.04,59.82,"5,947,000",28.50
"Sep 11, 2006",59.98,60.75,58.45,59.77,"8,706,000",28.47
"Sep 8, 2006",63.00,63.30,60.63,60.89,"5,913,400",29.01
"Sep 7, 2006",62.67,63.70,62.19,63.00,"6,266,200",30.01
"Sep 6, 2006",65.28,65.55,63.07,63.15,"7,770,600",30.08
"Sep 5, 2006",65.32,66.82,65.32,66.61,"3,977,400",31.73
"Sep 1, 2006",64.85,66.12,64.85,65.94,"2,716,600",31.41
"Aug 31, 2006",64.65,65.91,64.33,64.82,"7,127,400",30.88
"Aug 30, 2006",65.63,66.26,64.13,65.19,"5,925,000",31.05
"Aug 29, 2006",67.29,67.30,65.50,65.63,"8,155,000",31.26
"Aug 28, 2006",67.50,68.84,67.05,67.83,"4,244,400",32.31
"Aug 25, 2006",68.80,69.91,68.35,69.13,"6,182,200",32.93
"Aug 24, 2006",66.00,67.56,65.56,67.41,"4,852,800",32.11
"Aug 23, 2006",67.00,67.74,65.62,65.79,"3,940,800",31.34
"Aug 22, 2006",66.50,67.41,66.25,67.14,"3,630,400",31.98
"Aug 21, 2006",66.59,67.43,66.45,66.52,"4,210,400",31.69
"Aug 18, 2006",65.50,66.60,65.15,66.34,"5,518,400",31.60
"Aug 17, 2006",64.48,65.59,64.21,65.44,"6,280,200",31.17
"Aug 16, 2006",66.25,67.23,64.94,65.32,"7,927,400",31.12
"Aug 15, 2006",66.96,66.96,65.75,66.20,"6,660,600",31.53
"Aug 14, 2006",67.64,67.67,65.85,66.13,"6,355,600",31.50
"Aug 11, 2006",69.65,69.71,67.90,68.14,"4,461,600",32.46
"Aug 10, 2006",70.06,70.27,68.73,69.90,"5,728,200",33.30
"Aug 9, 2006",70.32,71.71,69.60,70.32,"5,452,200",33.50
"Aug 8, 2006",69.51,70.61,69.07,69.15,"5,818,600",32.94
"Aug 7, 2006",69.79,70.87,68.97,69.90,"5,650,400",33.30
"Aug 4, 2006",69.60,70.20,68.37,69.59,"6,346,000",33.15
"Aug 3, 2006",68.85,70.42,68.80,69.35,"6,532,400",33.04
"Aug 2, 2006",72.10,73.33,70.27,70.82,"7,301,800",33.74
"Aug 1, 2006",72.17,73.65,71.07,71.43,"10,340,400",34.03
"Jul 31, 2006",72.90,75.56,72.75,74.15,"8,759,800",35.32
"Jul 28, 2006",70.00,72.06,69.62,72.06,"5,209,600",34.33
"Jul 27, 2006",72.42,72.61,70.27,70.62,"5,902,800",33.64
"Jul 26, 2006",69.25,72.19,68.64,71.83,"7,771,600",34.22
"Jul 25, 2006",68.52,70.48,68.01,69.38,"6,276,200",33.05
"Jul 24, 2006",65.15,67.65,65.00,67.37,"6,582,200",32.09
"Jul 21, 2006",66.85,66.90,64.30,64.40,"7,471,800",30.68
"Jul 20, 2006",68.11,68.77,66.50,66.50,"4,677,000",31.68
"Jul 19, 2006",66.88,68.43,66.55,67.99,"5,868,000",32.39
"Jul 18, 2006",68.50,68.56,65.52,66.88,"6,547,200",31.86
"Jul 17, 2006",69.25,69.63,66.82,67.45,"7,260,600",32.13
"Jul 14, 2006",69.86,70.30,67.59,70.15,"6,542,000",33.42
"Jul 13, 2006",70.40,71.15,69.08,69.50,"8,760,000",33.11
"Jul 12, 2006",70.11,71.30,69.37,70.25,"5,939,000",33.44
"Jul 11, 2006",70.05,70.92,69.54,70.50,"5,190,600",33.55
"Jul 10, 2006",68.25,70.24,68.25,69.56,"6,925,400",33.11
"Jul 7, 2006",71.90,72.38,68.57,69.07,"9,805,800",32.87
"Jul 6, 2006",71.70,72.45,70.88,71.08,"7,342,000",33.83
"Jul 5, 2006",70.69,71.82,69.55,71.63,"7,513,200",34.09
"Jul 3, 2006",70.21,71.18,69.86,70.89,"2,915,200",33.74
