"Jul 1, 2014",210.22,210.99,208.83,208.86,"679,300",207.48
"Jun 30, 2014",211.93,213.01,208.60,210.15,"1,459,500",208.76
"Jun 27, 2014",201.61,204.20,201.60,204.05,"737,000",202.70
"Jun 26, 2014",204.73,204.77,201.91,202.58,"477,600",201.24
"Jun 25, 2014",203.42,205.85,203.42,204.47,"614,700",203.12
"Jun 24, 2014",203.60,205.49,202.52,203.03,"525,400",201.69
"Jun 23, 2014",204.88,205.07,203.70,204.37,"299,900",203.02
"Jun 20, 2014",203.83,205.46,203.28,204.57,"753,500",203.22
"Jun 19, 2014",203.41,204.05,202.98,203.22,"425,100",201.87
"Jun 18, 2014",202.25,204.00,201.27,203.59,"561,400",202.24
"Jun 17, 2014",202.52,204.12,202.05,202.51,"362,800",201.17
"Jun 16, 2014",203.75,204.25,201.81,203.02,"430,500",201.68
"Jun 13, 2014",203.83,204.75,203.21,204.27,"252,100",202.92
"Jun 12, 2014",205.37,205.71,203.35,203.58,"642,000",202.23
"Jun 11, 2014",204.50,205.92,204.29,205.60,"381,700",204.24
"Jun 10, 2014",204.40,205.89,203.26,205.80,"417,200",204.44
"Jun 9, 2014",204.63,205.65,204.36,205.11,"420,200",203.75
"Jun 6, 2014",204.24,205.80,204.01,204.93,"436,800",203.57
"Jun 5, 2014",203.58,203.79,201.10,203.15,"493,100",201.80
"Jun 4, 2014",201.63,204.75,200.07,203.86,"786,800",202.51
"Jun 3, 2014",201.41,202.30,200.93,201.72,"416,100",200.38
"Jun 2, 2014",201.81,203.05,200.96,202.33,"307,700",200.99
"May 30, 2014",200.93,202.88,200.14,201.61,"539,100",200.27
"May 29, 2014",200.43,201.00,198.02,201.00,"522,300",199.67
"May 28, 2014",198.50,200.92,197.95,200.25,"726,500",198.92
"May 27, 2014",199.50,199.71,197.83,198.12,"678,900",196.81
"May 23, 2014",196.27,199.03,196.27,198.86,"302,600",197.54
"May 22, 2014",197.01,198.04,196.30,196.35,"345,700",195.05
"May 21, 2014",196.02,197.89,195.72,197.17,"593,200",195.86
"May 20, 2014",196.28,197.24,195.52,195.69,"770,200",194.39
"May 19, 2014",195.93,198.47,195.36,196.04,"493,200",194.74
"May 16, 2014",194.83,195.58,192.96,195.36,"735,700",194.07
"May 15, 2014",196.30,196.45,193.00,194.63,"466,900",193.34
"May 14, 2014",197.59,198.41,196.33,196.56,"433,100",195.26
"May 13, 2014",199.30,199.50,197.56,197.73,"475,000",196.42
"May 12, 2014",197.83,199.65,196.72,199.41,"344,400",198.09
"May 9, 2014",196.25,196.84,194.81,196.62,"502,500",195.32
"May 8, 2014",197.62,198.88,194.97,196.28,"600,400",194.98
"May 7, 2014",196.32,198.90,195.00,198.74,"809,900",196.76
"May 6, 2014",194.73,196.49,193.01,195.47,"620,300",193.52
"May 5, 2014",194.86,196.21,193.59,195.89,"444,000",193.94
"May 2, 2014",192.41,195.57,192.18,195.18,"758,100",193.23
"May 1, 2014",193.15,194.21,192.25,192.64,"394,500",190.72
"Apr 30, 2014",192.29,194.00,192.26,193.62,"558,700",191.69
"Apr 29, 2014",192.35,193.45,191.18,193.00,"493,700",191.08
"Apr 28, 2014",193.77,194.57,190.07,191.47,"791,900",189.56
"Apr 25, 2014",193.87,194.30,191.76,192.98,"714,500",191.06
"Apr 24, 2014",196.63,196.94,194.27,194.51,"768,400",192.57
"Apr 23, 2014",196.66,198.12,195.93,196.30,"771,100",194.34
"Apr 22, 2014",196.87,197.99,196.28,196.36,"889,000",194.40
"Apr 21, 2014",198.10,199.42,196.39,196.54,"1,261,500",194.58
"Apr 17, 2014",199.99,200.00,196.48,199.46,"1,794,100",197.47
"Apr 16, 2014",190.00,191.93,188.49,191.63,"1,017,200",189.72
"Apr 15, 2014",188.64,189.16,185.18,188.53,"937,700",186.65
"Apr 14, 2014",189.16,189.70,187.14,188.56,"652,100",186.68
"Apr 11, 2014",189.40,190.77,187.63,187.82,"686,700",185.95
"Apr 10, 2014",195.98,196.19,189.89,189.96,"923,500",188.07
"Apr 9, 2014",192.69,195.97,191.71,195.69,"716,000",193.74
"Apr 8, 2014",192.88,194.13,190.30,192.50,"929,300",190.58
"Apr 7, 2014",197.27,197.74,192.29,193.07,"1,163,500",191.14
"Apr 4, 2014",200.47,201.59,196.71,197.76,"1,418,200",195.79
"Apr 3, 2014",197.25,200.05,196.16,197.37,"612,300",195.40
"Apr 2, 2014",196.17,197.99,195.46,197.26,"729,100",195.29
"Apr 1, 2014",195.08,196.72,193.38,196.64,"546,800",194.68
"Mar 31, 2014",192.72,194.98,192.01,193.46,"813,900",191.53
"Mar 28, 2014",190.03,191.71,189.41,190.81,"506,400",188.91
"Mar 27, 2014",190.43,190.96,188.03,189.53,"600,700",187.64
"Mar 26, 2014",193.41,194.00,190.41,190.41,"746,200",188.51
"Mar 25, 2014",194.14,195.09,192.41,192.87,"777,700",190.95
"Mar 24, 2014",196.10,196.40,192.25,193.21,"504,400",191.28
"Mar 21, 2014",196.47,198.14,194.54,195.12,"1,512,400",193.17
"Mar 20, 2014",194.48,196.13,194.01,194.74,"916,900",192.80
"Mar 19, 2014",198.89,199.22,194.45,195.16,"747,600",193.21
"Mar 18, 2014",196.47,198.81,196.44,197.96,"611,600",195.99
"Mar 17, 2014",195.19,197.19,194.74,195.96,"834,400",194.01
"Mar 14, 2014",194.59,196.12,194.25,194.58,"607,000",192.64
"Mar 13, 2014",198.23,198.80,194.51,194.91,"511,200",192.97
"Mar 12, 2014",197.21,198.03,196.20,197.21,"802,800",195.24
"Mar 11, 2014",201.00,201.00,197.45,197.51,"886,000",195.54
"Mar 10, 2014",199.32,200.83,198.64,200.30,"489,600",198.30
"Mar 7, 2014",200.34,201.24,199.24,200.07,"770,000",198.08
"Mar 6, 2014",199.76,201.29,199.45,200.14,"489,600",198.14
"Mar 5, 2014",200.00,200.96,199.11,199.54,"597,100",197.55
"Mar 4, 2014",199.75,200.41,198.68,200.19,"677,000",198.19
"Mar 3, 2014",193.23,198.34,193.23,197.06,"807,700",195.10
"Feb 28, 2014",194.04,198.15,193.75,197.82,"1,439,900",195.85
"Feb 27, 2014",192.80,194.67,191.20,193.69,"793,100",191.76
"Feb 26, 2014",190.40,194.12,190.25,193.13,"890,600",191.20
"Feb 25, 2014",188.31,192.00,188.30,190.77,"839,600",188.87
"Feb 24, 2014",189.49,190.99,188.50,188.52,"847,700",186.64
"Feb 21, 2014",188.77,190.81,188.70,189.87,"1,130,000",187.98
"Feb 20, 2014",187.00,188.88,186.09,188.75,"845,400",186.87
"Feb 19, 2014",185.65,188.73,185.59,187.06,"859,000",185.19
"Feb 18, 2014",188.46,188.50,186.22,186.59,"1,309,900",184.13
"Feb 14, 2014",187.23,189.48,187.10,188.90,"707,500",186.41
"Feb 13, 2014",185.00,187.84,184.16,187.23,"687,200",184.76
"Feb 12, 2014",186.03,187.07,185.25,185.76,"680,900",183.31
"Feb 11, 2014",184.41,186.62,183.51,185.16,"996,100",182.71
"Feb 10, 2014",182.13,184.91,181.73,183.93,"1,005,300",181.50
"Feb 7, 2014",180.60,182.55,180.50,182.54,"798,400",180.13
"Feb 6, 2014",177.43,179.31,176.82,178.92,"829,500",176.56
"Feb 5, 2014",175.89,177.63,173.83,177.22,"1,129,300",174.88
"Feb 4, 2014",177.73,179.44,176.80,177.24,"969,000",174.90
"Feb 3, 2014",182.51,183.33,176.67,176.87,"1,283,400",174.53
"Jan 31, 2014",182.21,184.50,181.43,182.36,"1,360,600",179.95
"Jan 30, 2014",183.70,185.65,182.87,184.67,"595,000",182.23
"Jan 29, 2014",182.05,184.87,181.66,183.20,"795,500",180.78
"Jan 28, 2014",183.09,184.66,181.72,182.43,"1,016,600",180.02
"Jan 27, 2014",182.00,184.49,180.43,183.19,"1,390,500",180.77
"Jan 24, 2014",185.23,185.70,181.59,181.60,"1,188,600",179.20
"Jan 23, 2014",186.71,188.04,185.77,186.89,"1,228,100",184.42
"Jan 22, 2014",190.15,190.69,186.59,187.16,"1,421,900",184.69
"Jan 21, 2014",190.33,191.54,189.11,190.00,"1,169,800",187.49
"Jan 17, 2014",188.50,192.23,188.50,189.48,"1,828,200",186.98
"Jan 16, 2014",182.57,189.89,182.57,187.67,"1,647,100",185.19
"Jan 15, 2014",191.27,191.55,190.43,190.70,"1,055,700",188.18
"Jan 14, 2014",188.57,191.01,187.57,190.89,"959,700",188.37
"Jan 13, 2014",189.93,191.35,187.19,187.76,"1,304,500",185.28
"Jan 10, 2014",190.57,191.54,189.63,190.58,"1,045,100",188.06
"Jan 9, 2014",189.71,191.23,189.25,190.13,"1,183,000",187.62
"Jan 8, 2014",188.55,190.20,187.41,189.47,"1,003,300",186.97
"Jan 7, 2014",187.60,189.14,186.02,188.28,"1,167,400",185.79
"Jan 6, 2014",189.63,189.99,186.93,187.52,"782,400",185.04
"Jan 3, 2014",189.40,190.10,188.88,189.41,"407,100",186.91
"Jan 2, 2014",189.50,190.29,188.53,188.94,"684,200",186.44
"Dec 31, 2013",188.77,190.07,188.26,189.66,"519,400",187.16
"Dec 30, 2013",187.82,188.83,187.10,188.47,"507,600",185.98
"Dec 27, 2013",188.58,188.58,187.25,187.78,"391,500",185.30
"Dec 26, 2013",187.84,188.37,187.25,188.08,"304,900",185.60
"Dec 24, 2013",185.61,187.60,185.61,187.58,"186,500",185.10
"Dec 23, 2013",187.40,187.42,185.08,185.50,"686,800",183.05
"Dec 20, 2013",185.02,187.35,184.77,186.62,"2,267,200",184.16
"Dec 19, 2013",184.86,185.81,184.35,185.30,"717,600",182.85
"Dec 18, 2013",183.76,185.63,180.90,185.23,"959,500",182.78
"Dec 17, 2013",183.21,184.00,181.91,183.61,"893,400",181.18
"Dec 16, 2013",182.91,184.30,181.50,182.40,"954,000",179.99
"Dec 13, 2013",183.93,185.14,182.29,182.91,"676,700",180.49
"Dec 12, 2013",182.22,184.59,182.05,183.92,"898,900",181.49
"Dec 11, 2013",187.09,187.23,181.49,182.35,"1,082,000",179.94
"Dec 10, 2013",186.71,188.00,185.91,187.35,"551,800",184.88
"Dec 9, 2013",188.19,189.00,186.03,186.71,"708,500",184.24
"Dec 6, 2013",185.00,187.96,182.96,187.84,"947,200",185.36
"Dec 5, 2013",182.00,183.29,180.85,181.78,"578,000",179.38
"Dec 4, 2013",181.71,184.60,181.71,182.95,"964,800",180.53
"Dec 3, 2013",182.32,183.23,180.32,181.66,"671,400",179.26
"Dec 2, 2013",184.34,185.53,183.35,183.66,"509,200",181.23
"Nov 29, 2013",185.00,185.57,183.75,184.06,"197,200",181.63
"Nov 27, 2013",185.20,185.55,184.06,184.54,"454,700",182.10
"Nov 26, 2013",184.18,185.99,183.76,185.13,"483,200",182.68
"Nov 25, 2013",183.82,185.54,183.82,184.19,"487,200",181.76
"Nov 22, 2013",183.59,184.23,182.55,183.78,"674,600",181.35
"Nov 21, 2013",183.31,183.92,182.45,183.32,"666,500",180.90
"Nov 20, 2013",184.65,184.70,181.80,182.20,"668,700",179.79
"Nov 19, 2013",184.23,185.50,184.05,184.76,"312,800",182.32
"Nov 18, 2013",184.97,185.54,184.11,184.65,"462,400",182.21
"Nov 15, 2013",186.38,186.89,184.67,184.90,"683,900",182.46
"Nov 14, 2013",185.00,185.61,183.72,185.58,"517,200",183.13
"Nov 13, 2013",181.68,184.90,181.57,184.62,"981,000",182.18
"Nov 12, 2013",182.18,182.99,181.38,182.51,"615,200",180.10
"Nov 11, 2013",181.73,183.15,181.58,182.16,"748,600",179.75
"Nov 8, 2013",180.00,181.79,179.38,181.57,"1,103,600",179.17
"Nov 7, 2013",183.29,184.32,179.35,179.64,"884,200",177.27
"Nov 6, 2013",182.34,184.84,182.34,182.80,"862,100",180.39
"Nov 5, 2013",182.94,184.46,181.61,183.32,"551,400",180.30
"Nov 4, 2013",183.50,183.60,181.67,183.46,"607,700",180.43
"Nov 1, 2013",182.80,183.39,181.71,182.75,"733,300",179.74
"Oct 31, 2013",181.74,184.57,181.55,182.58,"917,700",179.57
"Oct 30, 2013",186.28,187.28,179.13,181.66,"1,188,200",178.66
"Oct 29, 2013",181.20,185.68,181.20,185.51,"827,300",182.45
"Oct 28, 2013",181.93,182.07,180.33,180.89,"500,800",177.91
"Oct 25, 2013",179.46,181.95,179.09,181.92,"569,800",178.92
"Oct 24, 2013",178.75,179.61,177.95,179.46,"361,800",176.50
"Oct 23, 2013",180.28,180.44,178.32,178.45,"717,600",175.51
"Oct 22, 2013",177.85,180.73,176.51,180.12,"909,600",177.15
"Oct 21, 2013",175.30,177.02,174.45,176.61,"842,700",173.70
"Oct 18, 2013",175.36,176.58,173.55,175.77,"1,353,900",172.87
"Oct 17, 2013",169.75,174.74,167.24,174.47,"1,534,800",171.59
"Oct 16, 2013",167.20,168.01,165.56,166.22,"958,000",163.48
"Oct 15, 2013",166.12,166.63,164.89,165.48,"455,800",162.75
"Oct 14, 2013",165.46,166.50,164.68,166.13,"619,100",163.39
"Oct 11, 2013",164.87,166.79,164.57,166.75,"909,300",164.00
"Oct 10, 2013",164.70,165.95,163.80,164.73,"1,150,700",162.01
"Oct 9, 2013",162.98,164.22,160.76,162.48,"1,115,500",159.80
"Oct 8, 2013",167.91,168.01,162.70,162.81,"870,400",160.13
"Oct 7, 2013",168.77,170.20,167.51,167.91,"921,500",165.14
"Oct 4, 2013",166.14,171.00,165.97,170.90,"923,100",168.08
"Oct 3, 2013",166.19,166.83,165.06,166.49,"770,400",163.74
"Oct 2, 2013",165.53,166.64,164.86,166.64,"666,900",163.89
"Oct 1, 2013",167.13,167.81,166.10,166.81,"592,900",164.06
"Sep 30, 2013",163.78,167.13,163.52,167.06,"752,400",164.30
"Sep 27, 2013",165.44,166.31,164.88,165.27,"655,600",162.54
"Sep 26, 2013",165.10,166.96,164.79,166.65,"456,800",163.90
"Sep 25, 2013",163.94,165.34,163.40,164.64,"889,700",161.92
"Sep 24, 2013",163.68,165.18,163.21,163.47,"795,600",160.77
"Sep 23, 2013",166.16,166.16,163.33,163.42,"938,200",160.73
"Sep 20, 2013",167.99,172.21,166.16,166.28,"707,700",163.54
"Sep 19, 2013",167.79,168.97,167.20,167.99,"460,200",165.22
"Sep 18, 2013",164.65,167.98,163.62,167.81,"555,200",165.04
"Sep 17, 2013",165.20,165.53,164.24,165.36,"439,200",162.63
"Sep 16, 2013",165.20,165.89,164.35,165.20,"429,200",162.48
"Sep 13, 2013",163.31,163.98,162.17,162.44,"456,900",159.76
"Sep 12, 2013",164.19,165.52,162.31,162.87,"445,600",160.18
"Sep 11, 2013",163.58,164.71,163.14,164.42,"403,000",161.71
"Sep 10, 2013",162.83,163.71,162.21,163.71,"620,100",161.01
"Sep 9, 2013",159.54,161.96,159.54,161.64,"417,300",158.97
"Sep 6, 2013",160.98,161.18,157.58,159.25,"645,100",156.62
"Sep 5, 2013",158.85,161.34,158.34,160.57,"319,500",157.92
"Sep 4, 2013",156.90,159.43,156.35,158.94,"565,100",156.32
"Sep 3, 2013",158.54,159.92,156.47,157.21,"496,100",154.62
"Aug 30, 2013",156.54,157.25,155.70,156.21,"374,200",153.63
"Aug 29, 2013",155.29,157.24,155.27,156.19,"706,200",153.61
"Aug 28, 2013",156.94,157.70,155.60,155.76,"819,200",153.19
"Aug 27, 2013",158.28,159.00,157.00,157.76,"536,000",155.16
"Aug 26, 2013",162.64,162.85,159.76,160.27,"429,200",157.63
"Aug 23, 2013",160.46,162.42,158.69,162.24,"700,900",159.56
"Aug 22, 2013",159.43,160.48,157.86,160.15,"330,300",157.51
"Aug 21, 2013",158.81,160.56,157.80,159.11,"443,700",156.49
"Aug 20, 2013",156.95,160.05,156.81,158.97,"806,800",156.35
"Aug 19, 2013",158.15,159.33,156.52,156.81,"525,800",154.22
"Aug 16, 2013",158.06,159.38,157.57,158.59,"688,900",155.97
"Aug 15, 2013",161.00,161.00,158.29,158.77,"578,700",156.15
"Aug 14, 2013",162.96,163.43,161.96,162.37,"664,300",159.69
"Aug 13, 2013",160.87,163.30,160.41,162.76,"663,900",160.08
"Aug 12, 2013",161.02,161.91,160.27,161.34,"750,600",158.68
"Aug 9, 2013",161.47,162.73,160.81,161.69,"412,900",159.02
"Aug 8, 2013",162.03,162.72,160.38,161.83,"796,300",159.16
"Aug 7, 2013",160.94,161.93,160.10,161.09,"526,600",157.83
"Aug 6, 2013",161.57,161.65,159.54,161.42,"661,200",158.16
"Aug 5, 2013",161.62,162.54,160.68,161.89,"723,500",158.62
"Aug 2, 2013",162.49,163.54,160.45,162.36,"499,000",159.08
"Aug 1, 2013",156.26,165.64,156.26,162.76,"476,800",159.47
"Jul 31, 2013",161.50,162.26,160.01,160.44,"631,500",157.20
"Jul 30, 2013",161.09,161.64,160.00,161.05,"653,500",157.79
"Jul 29, 2013",158.23,161.48,157.42,161.17,"774,200",157.91
"Jul 26, 2013",158.50,158.50,156.38,157.11,"522,200",153.93
"Jul 25, 2013",157.09,158.79,156.94,158.73,"563,800",155.52
"Jul 24, 2013",159.56,159.87,156.18,157.08,"852,000",153.90
"Jul 23, 2013",160.77,161.34,158.94,159.13,"671,100",155.91
"Jul 22, 2013",159.01,161.13,158.91,159.73,"1,008,500",156.50
"Jul 19, 2013",160.07,160.94,159.02,159.16,"878,400",155.94
"Jul 18, 2013",156.79,161.47,156.18,160.00,"1,368,400",156.77
"Jul 17, 2013",155.64,156.93,155.38,156.86,"647,000",153.69
"Jul 16, 2013",157.04,157.09,154.13,154.84,"569,700",151.71
"Jul 15, 2013",157.98,158.04,156.71,156.99,"425,300",153.82
"Jul 12, 2013",157.91,158.13,156.19,157.73,"792,300",154.54
"Jul 11, 2013",159.12,159.51,157.13,158.03,"885,500",154.84
"Jul 10, 2013",156.58,157.00,155.36,156.04,"582,200",152.89
"Jul 9, 2013",154.53,156.79,153.04,156.53,"858,000",153.37
"Jul 8, 2013",153.30,153.65,151.31,153.23,"601,500",150.13
"Jul 5, 2013",150.57,152.70,150.57,152.42,"644,600",149.34
"Jul 3, 2013",147.14,149.94,144.58,149.59,"369,200",146.57
"Jul 2, 2013",147.85,149.82,147.74,149.08,"701,900",146.07
"Jul 1, 2013",147.05,150.19,146.56,148.44,"681,500",145.44
"Jun 28, 2013",147.92,148.24,146.00,146.41,"2,336,000",143.45
"Jun 27, 2013",150.10,150.52,148.34,149.03,"779,900",146.02
"Jun 26, 2013",148.69,149.96,146.90,149.00,"762,300",145.99
"Jun 25, 2013",149.18,150.24,146.77,147.83,"650,200",144.84
"Jun 24, 2013",148.83,148.87,145.21,146.68,"769,200",143.71
"Jun 21, 2013",151.91,152.04,147.63,148.90,"1,046,300",145.89
"Jun 20, 2013",152.25,152.76,149.61,150.08,"1,065,200",147.05
"Jun 19, 2013",156.32,157.22,154.09,154.17,"501,000",151.05
"Jun 18, 2013",156.04,156.75,155.11,156.57,"516,200",153.40
"Jun 17, 2013",155.00,156.94,154.36,156.11,"557,800",152.95
"Jun 14, 2013",154.37,155.72,153.11,153.83,"459,700",150.72
"Jun 13, 2013",150.46,155.90,150.46,155.27,"827,600",152.13
"Jun 12, 2013",153.35,153.69,150.68,150.95,"409,300",147.90
"Jun 11, 2013",151.79,153.83,151.01,151.90,"440,600",148.83
"Jun 10, 2013",155.99,155.99,153.10,154.27,"318,300",151.15
"Jun 7, 2013",153.09,155.34,152.52,154.92,"683,500",151.79
"Jun 6, 2013",149.15,151.58,149.04,151.27,"444,100",148.21
"Jun 5, 2013",153.06,153.45,149.93,149.99,"573,100",146.96
"Jun 4, 2013",154.89,156.21,152.85,153.56,"566,000",150.46
"Jun 3, 2013",154.47,155.29,152.20,155.14,"661,600",152.00
"May 31, 2013",155.63,156.54,153.61,153.61,"550,300",150.50
"May 30, 2013",157.39,157.63,155.72,156.31,"404,800",153.15
"May 29, 2013",156.21,157.92,155.58,157.10,"383,900",153.92
"May 28, 2013",158.89,159.50,156.08,157.33,"568,500",154.15
"May 24, 2013",155.64,157.43,154.33,156.83,"550,300",153.66
"May 23, 2013",155.43,157.90,154.36,156.86,"558,800",153.69
"May 22, 2013",158.89,160.83,156.59,157.55,"646,300",154.37
"May 21, 2013",157.54,159.43,157.02,158.94,"705,200",155.73
"May 20, 2013",158.36,158.48,155.80,157.06,"646,500",153.88
"May 17, 2013",156.71,158.89,155.89,158.84,"572,400",155.63
"May 16, 2013",156.07,157.40,155.40,155.55,"495,500",152.41
"May 15, 2013",156.06,157.85,155.57,156.47,"824,300",153.31
"May 14, 2013",153.49,156.86,153.34,156.81,"624,300",153.64
"May 13, 2013",153.65,153.97,152.43,153.21,"381,700",150.11
"May 10, 2013",153.79,154.60,153.11,154.13,"540,800",151.01
"May 9, 2013",154.66,155.13,153.58,153.92,"886,000",150.81
"May 8, 2013",152.96,155.18,152.38,155.14,"966,200",152.00
"May 7, 2013",151.88,153.38,151.78,153.22,"508,800",149.52
"May 6, 2013",152.13,152.13,150.61,151.76,"572,100",148.10
"May 3, 2013",150.60,152.58,150.01,152.28,"1,020,600",148.61
"May 2, 2013",145.88,148.88,145.31,148.48,"823,500",144.90
"May 1, 2013",145.82,147.09,145.11,145.20,"1,072,200",141.70
"Apr 30, 2013",147.10,147.36,145.63,147.14,"817,900",143.59
"Apr 29, 2013",145.64,147.21,144.88,147.02,"556,200",143.47
"Apr 26, 2013",146.76,146.85,144.25,144.93,"572,400",141.43
"Apr 25, 2013",146.00,148.56,145.46,146.91,"967,900",143.37
"Apr 24, 2013",145.00,145.85,144.35,144.98,"891,900",141.48
"Apr 23, 2013",143.95,144.88,143.12,144.80,"796,700",141.31
"Apr 22, 2013",141.62,144.05,140.81,143.55,"1,105,700",140.09
"Apr 19, 2013",140.66,142.23,139.60,141.59,"1,803,500",138.18
"Apr 18, 2013",135.66,142.00,135.66,140.65,"2,390,500",137.26
"Apr 17, 2013",133.39,133.98,131.75,132.40,"1,099,300",129.21
"Apr 16, 2013",132.71,134.67,132.11,134.55,"1,311,500",131.31
"Apr 15, 2013",135.17,135.46,131.39,131.44,"1,238,700",128.27
"Apr 12, 2013",136.95,137.44,135.52,136.25,"690,000",132.96
"Apr 11, 2013",134.69,138.13,134.62,137.61,"1,087,000",134.29
"Apr 10, 2013",133.11,134.88,132.82,134.66,"1,041,100",131.41
"Apr 9, 2013",131.52,132.95,131.38,132.65,"1,280,900",129.45
"Apr 8, 2013",131.60,132.06,130.56,131.45,"1,015,900",128.28
"Apr 5, 2013",131.73,132.75,130.63,131.73,"884,300",128.55
"Apr 4, 2013",133.04,134.89,132.50,133.90,"915,300",130.67
"Apr 3, 2013",134.05,134.05,132.20,132.72,"1,368,100",129.52
"Apr 2, 2013",134.76,134.99,133.19,133.69,"841,000",130.47
"Apr 1, 2013",133.65,134.47,133.20,134.16,"1,658,400",130.92
"Mar 28, 2013",133.33,134.09,132.87,133.94,"1,053,400",130.71
"Mar 27, 2013",133.07,133.70,131.95,133.42,"936,500",130.20
"Mar 26, 2013",134.69,135.90,133.83,134.04,"1,194,100",130.81
"Mar 25, 2013",136.31,136.47,132.64,133.89,"1,155,400",130.66
"Mar 22, 2013",136.99,138.24,135.60,135.97,"734,400",132.69
"Mar 21, 2013",139.13,140.06,137.27,137.29,"1,016,400",133.98
"Mar 20, 2013",141.36,142.16,140.84,141.01,"864,500",137.61
"Mar 19, 2013",141.69,141.71,139.54,140.87,"866,100",137.47
"Mar 18, 2013",139.01,141.86,138.72,141.10,"668,600",137.70
"Mar 15, 2013",142.12,143.50,139.11,141.30,"1,592,600",137.89
"Mar 14, 2013",141.80,143.23,141.61,142.23,"974,700",138.80
"Mar 13, 2013",139.06,141.66,138.96,141.52,"1,324,000",138.11
"Mar 12, 2013",137.55,139.29,137.55,139.14,"1,298,800",135.78
"Mar 11, 2013",136.91,137.96,136.91,137.78,"870,400",134.46
"Mar 8, 2013",136.21,137.54,135.48,137.34,"1,051,900",134.03
"Mar 7, 2013",135.72,135.96,134.91,135.47,"966,400",132.20
"Mar 6, 2013",136.56,136.91,134.76,135.45,"1,299,200",132.18
"Mar 5, 2013",136.00,136.95,135.79,136.22,"836,900",132.93
"Mar 4, 2013",134.60,135.65,134.18,135.59,"787,300",132.32
"Mar 1, 2013",133.64,135.42,132.71,134.81,"927,100",131.56
"Feb 28, 2013",134.92,135.88,134.61,134.66,"1,350,300",131.41
"Feb 27, 2013",132.11,135.42,131.86,134.66,"1,044,400",131.41
"Feb 26, 2013",130.63,133.06,130.63,132.68,"1,728,400",129.48
"Feb 25, 2013",132.85,133.78,130.28,130.30,"1,985,800",127.16
"Feb 22, 2013",130.37,132.37,130.10,132.32,"1,644,900",129.13
"Feb 21, 2013",130.65,130.65,128.20,130.08,"2,199,200",126.94
"Feb 20, 2013",135.28,135.50,131.49,131.51,"2,590,600",128.34
"Feb 19, 2013",138.68,139.25,135.53,135.71,"2,968,600",131.86
"Feb 15, 2013",139.78,140.07,138.50,139.39,"1,738,800",135.44
"Feb 14, 2013",138.66,139.36,137.91,139.00,"2,413,100",135.06
"Feb 13, 2013",137.02,139.77,136.95,139.11,"3,813,000",135.17
"Feb 12, 2013",138.39,138.39,135.45,136.45,"4,474,100",132.58
"Feb 11, 2013",139.15,139.70,138.15,139.35,"4,025,800",135.40
"Feb 8, 2013",137.99,139.28,137.39,138.88,"4,359,700",134.94
"Feb 7, 2013",138.77,139.00,136.03,137.97,"7,747,000",134.06
"Feb 6, 2013",137.93,138.87,136.86,138.33,"4,672,500",134.41
"Feb 5, 2013",139.43,140.44,137.00,138.37,"6,171,500",134.45
"Feb 4, 2013",139.74,140.29,138.36,138.94,"5,811,000",135.00
"Feb 1, 2013",139.35,140.92,137.95,140.56,"10,083,700",136.57
"Jan 31, 2013",139.17,140.20,137.77,137.87,"2,417,400",133.96
"Jan 30, 2013",140.79,142.91,139.76,140.23,"2,004,800",136.25
"Jan 29, 2013",140.00,141.30,139.13,141.06,"5,175,900",137.06
"Jan 28, 2013",138.70,141.75,137.17,140.00,"8,192,300",136.03
"Jan 25, 2013",145.00,147.99,142.67,144.21,"13,008,900",140.12
"Jan 24, 2013",143.00,146.11,142.53,143.98,"10,460,000",139.90
"Jan 23, 2013",142.36,143.77,141.86,143.41,"11,796,200",139.34
"Jan 22, 2013",142.79,143.74,141.04,142.77,"5,836,600",138.72
"Jan 18, 2013",141.47,143.50,137.75,142.73,"5,588,400",138.68
"Jan 17, 2013",139.53,142.75,139.12,141.98,"4,282,500",137.95
"Jan 16, 2013",139.44,139.69,137.00,139.13,"4,828,300",135.18
"Jan 15, 2013",139.88,141.50,139.30,140.14,"2,436,400",136.17
"Jan 14, 2013",140.50,142.75,140.00,141.03,"2,935,300",137.03
"Jan 11, 2013",141.83,142.87,140.92,142.10,"2,850,200",138.07
"Jan 10, 2013",142.26,142.38,139.99,141.77,"3,156,200",137.75
"Jan 9, 2013",140.69,142.74,140.48,141.40,"3,486,700",137.39
"Jan 8, 2013",138.29,140.48,136.20,140.23,"4,553,500",136.25
"Jan 7, 2013",139.14,139.27,137.08,138.26,"2,674,500",134.34
"Jan 4, 2013",138.00,139.61,137.25,139.47,"1,951,200",135.51
"Jan 3, 2013",138.69,138.97,137.18,137.75,"2,635,700",133.84
"Jan 2, 2013",138.34,140.41,137.42,138.55,"3,188,800",134.62
"Dec 31, 2012",132.29,135.89,132.14,135.35,"2,239,700",131.51
"Dec 28, 2012",132.18,133.73,131.00,132.70,"2,614,500",128.94
"Dec 27, 2012",134.45,136.79,131.45,133.12,"3,384,300",129.34
"Dec 26, 2012",136.20,136.22,134.72,134.74,"1,358,200",130.92
"Dec 24, 2012",132.90,135.51,132.40,135.24,"941,800",131.40
"Dec 21, 2012",132.81,134.25,132.33,133.26,"3,380,500",129.48
"Dec 20, 2012",132.01,134.50,131.89,134.39,"1,302,700",130.58
"Dec 19, 2012",132.37,132.72,131.15,131.21,"1,284,000",127.49
"Dec 18, 2012",130.77,133.26,130.23,132.47,"2,066,800",128.71
"Dec 17, 2012",130.56,131.80,128.72,130.20,"2,149,000",126.51
"Dec 14, 2012",129.05,132.88,128.10,129.93,"3,486,800",126.25
"Dec 13, 2012",124.72,125.85,124.25,125.21,"1,481,400",121.66
"Dec 12, 2012",125.76,125.76,124.20,124.55,"1,381,700",121.02
"Dec 11, 2012",124.25,125.70,123.72,125.04,"1,359,200",121.49
"Dec 10, 2012",121.17,124.38,121.03,123.84,"1,108,100",120.33
"Dec 7, 2012",122.55,123.35,120.12,121.37,"1,591,500",117.93
"Dec 6, 2012",119.67,123.35,118.75,123.21,"1,413,500",119.72
"Dec 5, 2012",120.21,121.20,119.03,119.46,"1,516,800",116.07
"Dec 4, 2012",121.00,121.84,119.40,120.31,"1,293,300",116.90
"Dec 3, 2012",124.99,125.00,120.77,120.94,"1,592,000",117.51
"Nov 30, 2012",122.62,124.87,121.95,124.27,"1,561,100",120.75
"Nov 29, 2012",122.41,123.10,121.40,122.64,"960,400",119.16
"Nov 28, 2012",121.17,122.18,119.95,121.90,"1,428,900",118.44
"Nov 27, 2012",122.73,123.11,122.00,122.39,"1,317,800",118.92
"Nov 26, 2012",122.52,123.20,122.16,123.01,"714,400",119.52
"Nov 23, 2012",122.52,123.45,122.07,123.37,"215,200",119.87
"Nov 21, 2012",121.53,121.94,120.89,121.75,"617,400",118.30
"Nov 20, 2012",119.83,121.59,119.05,121.55,"974,900",118.10
"Nov 19, 2012",117.28,120.53,117.28,120.05,"970,300",116.65
"Nov 16, 2012",115.37,115.76,113.81,115.62,"752,300",112.34
"Nov 15, 2012",116.26,117.06,114.21,115.25,"754,000",111.98
"Nov 14, 2012",117.83,118.12,115.99,116.31,"894,900",113.01
"Nov 13, 2012",116.48,118.51,116.29,117.45,"537,300",114.12
"Nov 12, 2012",117.84,118.61,116.75,117.47,"932,700",114.14
"Nov 9, 2012",117.37,118.55,116.77,117.38,"669,300",114.05
"Nov 8, 2012",120.66,121.36,117.58,117.61,"826,200",114.27
"Nov 7, 2012",122.54,122.59,119.69,120.64,"658,600",117.22
"Nov 6, 2012",122.08,123.75,121.72,123.19,"1,227,600",119.12
"Nov 5, 2012",119.84,121.89,119.27,121.78,"497,200",117.76
"Nov 2, 2012",122.93,128.42,119.87,119.92,"677,800",115.96
"Nov 1, 2012",118.68,121.94,117.38,121.80,"938,900",117.78
"Oct 31, 2012",116.44,117.48,115.95,117.08,"749,700",113.21
"Oct 26, 2012",116.02,116.63,115.14,116.12,"524,800",112.29
"Oct 25, 2012",117.97,118.00,115.50,116.02,"637,200",112.19
"Oct 24, 2012",116.30,117.73,115.94,117.17,"884,300",113.30
"Oct 23, 2012",114.57,116.31,113.70,115.54,"735,900",111.73
"Oct 22, 2012",117.33,118.33,116.33,117.70,"384,400",113.81
"Oct 19, 2012",119.44,119.64,116.93,117.73,"922,100",113.84
"Oct 18, 2012",118.87,120.00,117.60,119.09,"1,032,800",115.16
"Oct 17, 2012",118.05,120.00,117.44,118.97,"1,127,200",115.04
"Oct 16, 2012",116.98,118.90,115.94,117.82,"894,300",113.93
"Oct 15, 2012",114.37,116.25,113.76,116.14,"618,500",112.31
"Oct 12, 2012",115.59,116.15,113.39,114.23,"725,000",110.46
"Oct 11, 2012",116.47,117.07,115.46,115.46,"511,400",111.65
"Oct 10, 2012",115.10,115.97,114.41,115.36,"768,900",111.55
"Oct 9, 2012",117.64,117.64,115.57,115.71,"533,500",111.89
"Oct 8, 2012",117.53,118.03,116.38,117.72,"634,800",113.83
"Oct 5, 2012",118.22,118.41,117.03,117.94,"861,800",114.05
"Oct 4, 2012",117.05,117.65,116.16,117.02,"742,900",113.16
"Oct 3, 2012",114.39,116.64,114.17,116.61,"943,800",112.76
"Oct 2, 2012",115.78,115.91,114.00,114.63,"448,600",110.85
"Oct 1, 2012",115.28,116.31,114.74,115.55,"781,600",111.74
"Sep 28, 2012",114.26,115.21,113.19,114.84,"529,200",111.05
"Sep 27, 2012",115.02,116.04,114.30,115.23,"505,700",111.43
"Sep 26, 2012",115.05,115.80,114.08,114.60,"626,700",110.82
"Sep 25, 2012",117.23,117.45,115.00,115.03,"706,200",111.23
"Sep 24, 2012",117.00,117.35,116.08,116.81,"615,900",112.95
"Sep 21, 2012",119.29,119.30,117.38,117.59,"1,255,300",113.71
"Sep 20, 2012",116.36,118.46,116.01,118.37,"1,109,100",114.46
"Sep 19, 2012",117.42,117.95,116.24,117.24,"841,900",113.37
"Sep 18, 2012",118.50,118.50,116.80,117.45,"745,600",113.57
"Sep 17, 2012",118.20,119.03,117.78,118.50,"684,900",114.59
"Sep 14, 2012",118.79,119.86,118.14,118.84,"1,266,000",114.92
"Sep 13, 2012",115.96,119.64,115.80,118.58,"1,227,000",114.67
"Sep 12, 2012",116.23,116.85,115.27,115.77,"1,091,600",111.95
"Sep 11, 2012",115.93,116.48,114.79,115.87,"983,300",112.04
"Sep 10, 2012",114.73,116.79,114.35,115.79,"1,560,000",111.97
"Sep 7, 2012",113.00,113.70,111.03,113.14,"1,329,800",109.40
"Sep 6, 2012",109.59,113.01,109.35,113.00,"1,299,000",109.27
"Sep 5, 2012",108.40,108.97,107.43,108.77,"727,600",105.18
"Sep 4, 2012",109.70,109.99,107.64,108.17,"803,800",104.60
"Aug 31, 2012",109.42,110.27,108.61,110.02,"649,100",106.39
"Aug 30, 2012",109.24,109.57,108.29,108.49,"816,000",104.91
"Aug 29, 2012",109.05,109.90,108.26,109.71,"715,500",106.09
"Aug 28, 2012",108.96,109.34,108.65,108.89,"677,700",105.30
"Aug 27, 2012",109.50,109.81,108.56,109.38,"926,400",105.77
"Aug 24, 2012",108.96,109.48,108.17,109.15,"760,900",105.55
"Aug 23, 2012",110.55,110.70,108.74,108.99,"1,012,700",105.39
"Aug 22, 2012",106.90,111.07,106.86,111.05,"1,226,300",107.38
"Aug 21, 2012",109.16,109.54,107.16,107.47,"941,500",103.92
"Aug 20, 2012",109.84,110.20,108.80,109.16,"698,800",105.56
"Aug 17, 2012",110.56,110.65,110.05,110.25,"621,900",106.61
"Aug 16, 2012",109.76,110.29,108.85,110.04,"450,800",106.41
"Aug 15, 2012",108.31,109.55,107.96,109.43,"493,300",105.82
"Aug 14, 2012",110.23,110.82,108.14,108.48,"852,800",104.90
"Aug 13, 2012",110.84,110.99,109.15,110.14,"459,900",106.50
"Aug 10, 2012",110.74,110.82,109.82,110.82,"650,600",107.16
"Aug 9, 2012",110.75,111.87,110.45,111.37,"528,700",107.69
"Aug 8, 2012",110.41,111.50,108.64,111.11,"976,600",107.44
"Aug 7, 2012",110.64,111.77,109.71,111.52,"1,047,300",107.27
"Aug 6, 2012",109.11,110.54,108.83,109.90,"1,026,900",105.71
"Aug 3, 2012",109.49,109.68,108.44,109.20,"1,067,900",105.04
"Aug 2, 2012",107.25,108.04,105.87,107.64,"1,063,200",103.54
"Aug 1, 2012",109.93,111.09,108.06,108.06,"930,600",103.94
"Jul 31, 2012",110.83,111.14,109.38,109.46,"1,082,600",105.29
"Jul 30, 2012",110.26,111.86,110.10,110.99,"721,300",106.76
"Jul 27, 2012",109.00,110.68,108.79,110.42,"1,233,700",106.21
"Jul 26, 2012",109.79,109.79,107.92,108.23,"1,203,100",104.10
"Jul 25, 2012",109.08,109.65,107.30,107.49,"1,326,300",103.39
"Jul 24, 2012",111.03,111.03,107.64,108.56,"1,454,000",104.42
"Jul 23, 2012",110.90,112.49,110.16,110.75,"2,089,900",106.53
"Jul 20, 2012",110.56,114.62,109.46,113.85,"2,990,900",109.51
"Jul 19, 2012",109.25,112.18,106.85,111.96,"4,232,000",107.69
"Jul 18, 2012",103.48,104.86,103.48,104.19,"837,400",100.22
"Jul 17, 2012",102.59,104.32,101.92,104.13,"905,200",100.16
"Jul 16, 2012",102.90,103.39,101.60,102.13,"660,100",98.24
"Jul 13, 2012",101.28,103.45,101.28,103.34,"1,021,300",99.40
"Jul 12, 2012",99.89,101.26,99.12,100.66,"752,700",96.82
"Jul 11, 2012",102.16,102.20,99.83,100.88,"1,398,000",97.03
"Jul 10, 2012",103.49,104.44,101.62,102.14,"625,100",98.25
"Jul 9, 2012",105.38,105.57,103.00,103.37,"1,028,500",99.43
"Jul 6, 2012",104.19,105.89,103.86,105.57,"886,700",101.54
"Jul 5, 2012",104.40,106.12,104.02,105.49,"619,600",101.47
"Jul 3, 2012",104.48,105.24,103.93,104.88,"545,100",100.88
"Jul 2, 2012",106.31,106.31,103.78,104.70,"888,200",100.71
"Jun 29, 2012",105.22,106.17,104.83,106.12,"770,300",102.07
"Jun 28, 2012",103.01,103.69,101.65,103.50,"1,088,600",99.55
"Jun 27, 2012",102.34,103.92,102.34,103.48,"744,200",99.53
"Jun 26, 2012",101.81,103.46,101.15,102.84,"1,055,900",98.92
"Jun 25, 2012",103.23,103.23,101.18,101.33,"1,360,000",97.47
"Jun 22, 2012",103.82,104.73,102.36,104.19,"1,656,500",100.22
"Jun 21, 2012",106.10,106.43,102.25,102.42,"849,100",98.51
"Jun 20, 2012",106.03,106.89,105.33,106.04,"690,600",102.00
"Jun 19, 2012",105.24,106.69,105.21,106.18,"774,700",102.13
"Jun 18, 2012",103.54,104.89,103.32,104.78,"578,200",100.78
"Jun 15, 2012",102.48,104.26,102.20,104.14,"1,008,600",100.17
"Jun 14, 2012",102.04,102.45,100.62,101.76,"1,082,500",97.88
"Jun 13, 2012",103.37,103.63,101.58,101.91,"646,400",98.02
"Jun 12, 2012",102.46,104.25,101.83,104.15,"715,400",100.18
"Jun 11, 2012",104.79,104.92,101.79,101.96,"1,030,700",98.07
"Jun 8, 2012",102.41,103.82,101.77,103.68,"580,600",99.73
"Jun 7, 2012",103.56,104.46,102.39,102.58,"1,795,500",98.67
"Jun 6, 2012",99.90,101.81,99.87,101.81,"915,600",97.93
"Jun 5, 2012",97.34,99.16,97.30,98.99,"965,500",95.22
"Jun 4, 2012",98.91,99.00,96.74,97.77,"1,402,700",94.04
"Jun 1, 2012",100.38,101.50,98.72,98.96,"1,481,100",95.19
"May 31, 2012",102.41,104.13,101.31,103.44,"1,248,000",99.50
"May 30, 2012",104.08,104.21,101.72,102.26,"1,495,300",98.36
"May 29, 2012",104.61,105.95,104.27,105.10,"987,600",101.09
"May 25, 2012",103.52,104.65,102.65,103.18,"963,800",99.25
"May 24, 2012",103.87,104.59,102.24,104.20,"2,030,300",100.23
"May 23, 2012",98.36,101.25,97.87,100.80,"1,617,500",96.96
"May 22, 2012",100.00,100.72,98.74,99.26,"826,100",95.48
"May 21, 2012",98.13,99.72,97.62,99.54,"942,600",95.74
"May 18, 2012",99.67,99.75,97.09,97.56,"1,351,000",93.84
"May 17, 2012",102.00,102.14,98.77,98.85,"1,315,900",95.08
"May 16, 2012",102.43,103.46,101.62,101.75,"797,500",97.87
"May 15, 2012",102.81,103.61,101.88,102.18,"1,402,500",98.28
"May 14, 2012",104.00,104.51,102.98,103.12,"1,414,900",99.19
"May 11, 2012",105.19,106.38,104.92,105.19,"1,036,300",101.18
"May 10, 2012",106.99,107.01,105.48,105.73,"974,900",101.70
"May 9, 2012",104.89,106.70,104.27,105.94,"1,501,400",101.90
"May 8, 2012",106.00,106.74,104.95,106.51,"1,237,200",102.45
"May 7, 2012",105.01,107.04,104.95,106.90,"1,002,600",102.26
"May 4, 2012",106.60,106.75,105.42,105.67,"1,173,200",101.08
"May 3, 2012",107.00,107.95,106.55,107.20,"1,079,600",102.54
"May 2, 2012",106.24,107.31,106.09,107.19,"1,202,200",102.53
"May 1, 2012",105.07,107.67,104.98,107.04,"1,648,000",102.39
"Apr 30, 2012",105.89,106.40,104.91,105.24,"1,028,800",100.67
"Apr 27, 2012",105.72,106.11,105.07,105.66,"943,000",101.07
"Apr 26, 2012",103.69,105.82,103.40,105.22,"1,237,100",100.65
"Apr 25, 2012",102.67,104.27,102.39,104.17,"1,172,200",99.65
"Apr 24, 2012",101.22,102.16,101.10,102.00,"1,814,800",97.57
"Apr 23, 2012",100.59,101.04,99.40,101.01,"1,677,000",96.62
"Apr 20, 2012",101.30,102.18,100.29,101.29,"2,009,500",96.89
"Apr 19, 2012",98.97,101.90,97.39,101.00,"3,662,900",96.61
"Apr 18, 2012",97.64,98.89,97.16,98.47,"1,580,600",94.19
"Apr 17, 2012",97.57,98.74,97.26,98.34,"1,226,100",94.07
"Apr 16, 2012",97.23,97.49,95.51,96.90,"1,237,500",92.69
"Apr 13, 2012",96.32,96.61,95.60,95.72,"1,406,000",91.56
"Apr 12, 2012",94.76,97.12,94.44,96.83,"1,675,800",92.62
"Apr 11, 2012",93.32,94.88,93.12,94.54,"1,502,500",90.43
"Apr 10, 2012",94.09,94.38,91.85,92.09,"3,233,800",88.09
"Apr 9, 2012",94.98,95.64,94.20,94.25,"2,804,200",90.16
"Apr 5, 2012",97.70,98.55,95.30,96.29,"5,309,100",92.11
"Apr 4, 2012",94.98,95.04,93.73,93.92,"2,193,800",89.84
"Apr 3, 2012",97.22,97.37,94.51,95.68,"2,169,900",91.52
"Apr 2, 2012",95.64,97.80,95.59,97.68,"1,573,700",93.44
"Mar 30, 2012",96.40,96.40,95.41,95.80,"689,900",91.64
"Mar 29, 2012",94.00,95.82,94.00,95.69,"1,034,800",91.53
"Mar 28, 2012",95.76,96.40,94.37,94.78,"1,155,600",90.66
"Mar 27, 2012",95.57,96.33,95.44,95.74,"806,700",91.58
"Mar 26, 2012",94.33,95.42,93.83,95.41,"803,200",91.27
"Mar 23, 2012",93.08,94.17,92.37,93.65,"752,500",89.58
"Mar 22, 2012",93.60,93.62,92.57,92.96,"701,800",88.92
"Mar 21, 2012",93.89,94.65,93.38,94.14,"786,600",90.05
"Mar 20, 2012",93.76,94.19,93.32,93.93,"1,207,400",89.85
"Mar 19, 2012",93.35,94.77,93.35,94.46,"1,784,900",90.36
"Mar 16, 2012",94.07,94.52,93.34,93.59,"1,405,200",89.52
"Mar 15, 2012",93.90,93.97,93.26,93.64,"1,020,300",89.57
"Mar 14, 2012",94.18,94.59,93.25,93.68,"765,300",89.61
"Mar 13, 2012",93.71,94.41,93.37,94.31,"858,800",90.21
"Mar 12, 2012",92.96,93.63,92.68,93.09,"651,400",89.05
"Mar 9, 2012",93.00,93.64,92.60,92.77,"749,300",88.74
"Mar 8, 2012",91.51,93.39,91.40,92.94,"1,028,700",88.90
"Mar 7, 2012",90.63,90.93,90.05,90.55,"979,100",86.62
"Mar 6, 2012",90.23,90.96,90.04,90.41,"778,100",86.48
"Mar 5, 2012",92.16,92.30,91.20,91.62,"655,100",87.64
"Mar 2, 2012",92.95,93.40,92.11,92.50,"557,900",88.48
"Mar 1, 2012",91.49,92.98,91.49,92.66,"814,200",88.64
"Feb 29, 2012",92.92,93.14,90.94,91.25,"1,170,200",87.29
"Feb 28, 2012",92.79,93.67,92.35,92.93,"1,060,700",88.89
"Feb 27, 2012",91.19,93.18,90.70,92.94,"888,200",88.90
"Feb 24, 2012",92.00,92.56,91.49,91.67,"645,300",87.69
"Feb 23, 2012",91.69,92.50,91.48,92.20,"505,100",88.20
"Feb 22, 2012",91.98,93.16,91.73,91.80,"1,024,300",87.81
"Feb 21, 2012",91.32,92.30,90.90,91.97,"1,424,200",87.98
"Feb 17, 2012",91.86,92.45,91.54,92.12,"808,400",88.12
"Feb 16, 2012",90.07,91.52,89.90,91.40,"702,400",87.43
"Feb 15, 2012",90.62,90.62,89.35,89.94,"809,800",86.03
"Feb 14, 2012",91.04,91.38,89.68,90.52,"971,600",86.04
"Feb 13, 2012",91.41,91.83,90.83,91.08,"517,600",86.58
"Feb 10, 2012",91.16,91.16,90.18,90.83,"745,000",86.34
"Feb 9, 2012",91.61,92.09,91.16,92.03,"923,200",87.48
"Feb 8, 2012",91.23,91.70,90.37,91.61,"612,000",87.08
"Feb 7, 2012",90.57,91.40,89.99,91.27,"689,200",86.76
"Feb 6, 2012",90.67,90.95,90.43,90.88,"486,400",86.39
"Feb 3, 2012",90.97,91.56,90.70,91.22,"1,093,400",86.71
"Feb 2, 2012",90.98,90.98,89.70,89.80,"662,900",85.36
"Feb 1, 2012",90.72,91.63,90.30,90.86,"1,154,300",86.37
"Jan 31, 2012",89.80,90.00,88.53,89.58,"1,079,300",85.15
"Jan 30, 2012",88.03,89.59,87.61,89.47,"804,800",85.04
"Jan 27, 2012",88.74,89.52,88.07,89.06,"790,600",84.66
"Jan 26, 2012",89.95,90.89,88.51,88.83,"955,000",84.44
"Jan 25, 2012",88.08,89.69,87.65,89.42,"683,200",85.00
"Jan 24, 2012",87.50,88.61,87.24,88.50,"900,400",84.12
"Jan 23, 2012",88.85,89.00,88.02,88.33,"679,000",83.96
"Jan 20, 2012",87.69,89.20,87.69,88.92,"1,216,600",84.52
"Jan 19, 2012",89.40,89.40,86.74,87.76,"2,010,600",83.42
"Jan 18, 2012",88.27,89.98,88.08,89.90,"1,050,000",85.45
"Jan 17, 2012",88.74,89.04,87.60,88.04,"691,100",83.69
"Jan 13, 2012",87.70,88.02,86.41,87.52,"720,100",83.19
"Jan 12, 2012",86.75,88.09,86.45,88.00,"682,100",83.65
"Jan 11, 2012",85.90,86.60,85.82,86.60,"795,500",82.32
"Jan 10, 2012",85.41,86.66,85.31,86.14,"768,000",81.88
"Jan 9, 2012",84.80,84.97,83.92,84.33,"855,800",80.16
"Jan 6, 2012",84.48,84.94,84.24,84.76,"626,700",80.57
"Jan 5, 2012",84.49,84.64,83.27,84.54,"1,144,600",80.36
"Jan 4, 2012",85.10,85.68,84.58,85.30,"726,900",81.08
"Jan 3, 2012",85.30,86.28,84.96,85.12,"737,200",80.91
"Dec 30, 2011",84.12,84.23,83.49,83.49,"557,000",79.36
"Dec 29, 2011",82.85,84.06,82.45,83.99,"625,500",79.84
"Dec 28, 2011",84.12,84.24,82.64,82.79,"699,600",78.70
"Dec 27, 2011",83.30,84.44,83.18,83.96,"524,300",79.81
"Dec 23, 2011",82.54,83.55,82.36,83.51,"606,900",79.38
"Dec 22, 2011",82.27,82.65,81.71,82.36,"1,405,400",78.29
"Dec 21, 2011",81.16,82.23,80.54,82.16,"1,058,500",78.10
"Dec 20, 2011",80.04,81.37,79.95,80.78,"2,034,200",76.78
"Dec 19, 2011",81.00,81.44,78.80,79.13,"1,131,100",75.22
"Dec 16, 2011",80.90,82.13,80.20,80.87,"1,461,300",76.87
"Dec 15, 2011",81.41,81.60,79.64,80.12,"1,410,700",76.16
"Dec 14, 2011",80.84,81.35,79.87,80.20,"1,434,500",76.23
"Dec 13, 2011",83.21,84.07,80.74,81.36,"1,462,600",77.34
"Dec 12, 2011",82.79,82.95,81.89,82.52,"948,100",78.44
"Dec 9, 2011",81.59,84.35,81.20,83.94,"1,474,200",79.79
"Dec 8, 2011",84.38,84.53,82.43,82.63,"1,418,600",78.54
"Dec 7, 2011",85.16,85.45,84.12,84.67,"1,477,000",80.48
"Dec 6, 2011",85.12,86.25,84.50,85.44,"962,400",81.21
"Dec 5, 2011",86.41,87.05,84.63,85.17,"1,441,300",80.96
"Dec 2, 2011",86.52,86.98,84.59,84.87,"1,528,400",80.67
"Dec 1, 2011",87.19,87.78,86.16,86.55,"948,300",82.27
"Nov 30, 2011",86.34,87.79,85.91,87.75,"1,280,800",83.41
"Nov 29, 2011",83.93,84.06,82.63,83.14,"1,270,200",79.03
"Nov 28, 2011",82.29,83.25,81.95,82.55,"939,600",78.47
"Nov 25, 2011",79.22,80.40,79.07,79.45,"324,400",75.52
"Nov 23, 2011",80.30,80.66,79.39,79.57,"919,100",75.63
"Nov 22, 2011",81.51,82.61,80.64,81.27,"1,848,000",77.25
"Nov 21, 2011",82.38,82.45,81.11,81.83,"1,333,500",77.78
"Nov 18, 2011",83.33,84.25,82.60,83.60,"937,500",79.47
"Nov 17, 2011",84.70,85.53,81.97,82.71,"1,685,200",78.62
"Nov 16, 2011",85.86,86.81,84.81,84.93,"1,550,900",80.73
"Nov 15, 2011",86.85,87.99,86.31,87.35,"928,000",83.03
"Nov 14, 2011",87.78,88.09,86.62,87.29,"1,107,700",82.97
"Nov 11, 2011",87.64,88.58,87.60,88.11,"885,300",83.75
"Nov 10, 2011",86.31,86.97,85.07,86.22,"1,024,000",81.96
"Nov 9, 2011",86.80,87.21,84.80,85.42,"1,391,200",81.20
"Nov 8, 2011",88.77,89.59,87.53,89.38,"796,400",84.96
"Nov 7, 2011",88.73,89.36,87.10,88.90,"772,700",83.96
"Nov 4, 2011",88.10,88.79,86.55,88.51,"689,700",83.59
"Nov 3, 2011",88.00,88.96,86.77,88.66,"904,100",83.73
"Nov 2, 2011",85.64,87.34,85.35,86.70,"764,000",81.88
"Nov 1, 2011",83.08,86.64,83.08,84.60,"1,459,500",79.90
"Oct 31, 2011",87.78,88.08,86.35,86.41,"1,285,100",81.61
"Oct 28, 2011",88.21,90.00,87.79,89.37,"1,373,800",84.41
"Oct 27, 2011",87.14,89.96,86.46,88.93,"1,660,700",83.99
"Oct 26, 2011",84.07,85.40,82.75,84.86,"1,287,800",80.15
"Oct 25, 2011",84.10,84.65,82.42,82.53,"1,218,600",77.95
"Oct 24, 2011",83.97,84.85,83.60,84.40,"2,070,600",79.71
"Oct 21, 2011",81.97,83.76,81.71,83.68,"1,626,500",79.03
"Oct 20, 2011",80.17,80.94,78.29,80.68,"1,541,800",76.20
"Oct 19, 2011",80.50,81.00,78.30,78.84,"1,607,100",74.46
"Oct 18, 2011",77.69,81.19,77.28,80.73,"1,284,700",76.25
"Oct 17, 2011",79.58,79.89,77.53,77.84,"1,203,300",73.52
"Oct 14, 2011",78.84,79.83,78.13,79.71,"861,900",75.28
"Oct 13, 2011",76.76,77.92,76.17,77.67,"1,115,300",73.36
"Oct 12, 2011",76.92,78.44,76.92,77.76,"1,132,600",73.44
"Oct 11, 2011",76.11,76.82,75.66,76.21,"884,100",71.98
"Oct 10, 2011",74.99,76.65,74.96,76.44,"886,500",72.19
"Oct 7, 2011",73.85,74.65,72.43,73.48,"1,215,900",69.40
"Oct 6, 2011",72.40,73.81,71.20,73.71,"1,578,000",69.62
"Oct 5, 2011",71.16,73.10,70.21,72.76,"1,417,300",68.72
"Oct 4, 2011",67.66,70.77,66.43,70.67,"1,900,000",66.74
"Oct 3, 2011",70.00,71.56,68.58,68.68,"2,324,800",64.86
"Sep 30, 2011",71.07,72.19,70.50,70.66,"1,790,000",66.73
"Sep 29, 2011",74.14,74.14,70.99,72.35,"1,638,900",68.33
"Sep 28, 2011",74.70,74.85,71.45,71.50,"1,575,200",67.53
"Sep 27, 2011",74.46,76.16,73.58,74.52,"2,176,500",70.38
"Sep 26, 2011",69.56,72.50,68.49,72.44,"2,115,900",68.42
"Sep 23, 2011",69.50,70.59,68.27,68.82,"2,148,300",65.00
"Sep 22, 2011",71.12,71.23,68.91,70.10,"2,151,200",66.21
"Sep 21, 2011",77.39,77.63,73.50,73.54,"1,701,500",69.45
"Sep 20, 2011",78.13,79.13,77.02,77.52,"1,615,300",73.21
"Sep 19, 2011",76.98,78.00,76.00,77.72,"1,760,900",73.40
"Sep 16, 2011",77.88,78.77,77.53,78.64,"1,832,900",74.27
"Sep 15, 2011",76.78,77.72,76.49,77.42,"969,500",73.12
"Sep 14, 2011",75.18,76.93,73.81,76.00,"1,594,400",71.78
"Sep 13, 2011",73.60,74.91,73.11,74.69,"1,308,500",70.54
"Sep 12, 2011",72.28,73.45,71.53,73.12,"1,817,100",69.06
"Sep 9, 2011",73.91,73.97,72.65,73.10,"2,186,400",69.04
"Sep 8, 2011",74.54,75.42,74.35,74.84,"2,441,400",70.68
"Sep 7, 2011",74.34,75.03,74.30,75.01,"2,392,500",70.84
"Sep 6, 2011",71.53,73.26,71.30,73.20,"2,261,400",69.13
"Sep 2, 2011",73.50,74.01,73.34,73.57,"2,242,200",69.48
"Sep 1, 2011",76.70,77.15,74.95,75.03,"1,698,400",70.86
"Aug 31, 2011",77.04,77.64,76.07,76.59,"1,615,400",72.34
"Aug 30, 2011",75.16,76.94,74.92,76.48,"1,648,100",72.23
"Aug 29, 2011",73.34,75.52,73.28,75.49,"1,327,400",71.30
"Aug 26, 2011",71.33,72.68,69.14,72.34,"1,360,500",68.32
"Aug 25, 2011",72.35,72.74,70.69,71.08,"905,600",67.13
"Aug 24, 2011",70.81,72.00,70.30,71.89,"1,125,100",67.90
"Aug 23, 2011",69.24,71.14,68.86,71.14,"1,449,100",67.19
"Aug 22, 2011",70.33,70.80,68.70,68.94,"1,347,600",65.11
"Aug 19, 2011",69.39,71.23,68.80,68.88,"2,051,000",65.05
"Aug 18, 2011",73.14,73.25,69.86,70.41,"2,282,600",66.50
"Aug 17, 2011",75.67,76.78,74.78,75.30,"1,269,500",71.12
"Aug 16, 2011",75.75,76.02,74.42,75.20,"1,426,600",71.02
"Aug 15, 2011",75.64,76.67,75.14,76.62,"1,986,100",72.36
"Aug 12, 2011",76.15,76.28,74.75,75.06,"2,512,300",70.89
"Aug 11, 2011",73.37,75.75,72.95,74.91,"3,247,500",70.75
"Aug 10, 2011",75.35,75.88,72.91,73.06,"2,515,700",69.00
"Aug 9, 2011",74.09,77.52,72.76,77.31,"2,747,100",73.02
"Aug 8, 2011",75.70,76.61,72.00,72.95,"3,420,700",68.90
"Aug 5, 2011",79.15,79.59,76.24,77.88,"3,049,100",73.02
"Aug 4, 2011",81.51,81.51,77.62,77.68,"2,747,100",72.83
"Aug 3, 2011",82.05,82.76,79.65,82.64,"2,601,200",77.48
"Aug 2, 2011",83.38,84.18,81.70,81.72,"1,828,600",76.62
"Aug 1, 2011",85.42,85.71,82.81,83.90,"1,502,100",78.66
"Jul 29, 2011",83.40,84.91,83.05,84.20,"1,251,200",78.94
"Jul 28, 2011",85.33,86.38,84.42,84.55,"1,218,000",79.27
"Jul 27, 2011",86.20,86.53,84.91,85.00,"1,266,300",79.69
"Jul 26, 2011",88.48,88.51,86.42,86.59,"1,708,500",81.18
"Jul 25, 2011",88.15,89.70,87.79,88.55,"1,479,300",83.02
"Jul 22, 2011",90.00,90.58,88.67,88.94,"1,434,900",83.38
"Jul 21, 2011",91.55,91.65,89.76,89.98,"1,423,900",84.36
"Jul 20, 2011",89.43,89.69,88.70,89.35,"841,700",83.77
"Jul 19, 2011",89.18,89.91,88.98,89.24,"1,382,600",83.67
"Jul 18, 2011",89.49,89.49,88.18,88.71,"1,387,900",83.17
"Jul 15, 2011",88.85,89.75,88.59,89.67,"1,165,400",84.07
"Jul 14, 2011",89.98,90.24,88.30,88.45,"1,698,400",82.92
"Jul 13, 2011",90.43,90.93,89.72,89.93,"1,145,200",84.31
"Jul 12, 2011",90.02,90.69,89.71,89.85,"1,104,600",84.24
"Jul 11, 2011",90.58,91.17,89.86,90.27,"1,049,700",84.63
"Jul 8, 2011",92.03,92.23,91.37,92.12,"1,427,600",86.37
"Jul 7, 2011",93.52,93.85,93.09,93.37,"1,062,900",87.54
"Jul 6, 2011",91.79,93.39,91.58,92.51,"1,690,500",86.73
"Jul 5, 2011",91.60,91.76,91.00,91.49,"995,700",85.77
"Jul 1, 2011",90.98,92.01,90.44,91.85,"788,000",86.11
"Jun 30, 2011",89.51,90.97,89.16,90.79,"1,085,700",85.12
"Jun 29, 2011",88.80,89.39,87.92,89.14,"1,135,400",83.57
"Jun 28, 2011",87.49,88.46,86.87,88.46,"1,310,600",82.93
"Jun 27, 2011",86.71,87.50,85.42,86.96,"1,389,100",81.53
"Jun 24, 2011",87.16,87.41,86.28,87.16,"3,253,200",81.72
"Jun 23, 2011",86.34,87.08,85.25,87.01,"1,230,800",81.57
"Jun 22, 2011",87.74,88.61,87.20,87.74,"1,110,400",82.26
"Jun 21, 2011",86.02,87.89,85.83,87.73,"931,200",82.25
"Jun 20, 2011",84.48,85.74,84.40,85.43,"765,100",80.09
"Jun 17, 2011",84.72,85.26,84.29,84.75,"1,689,100",79.46
"Jun 16, 2011",83.72,84.68,82.76,84.11,"1,239,900",78.86
"Jun 15, 2011",84.46,84.95,83.25,83.97,"1,182,500",78.72
"Jun 14, 2011",84.86,85.88,84.86,85.50,"723,900",80.16
"Jun 13, 2011",84.25,84.56,83.40,83.84,"1,041,600",78.60
"Jun 10, 2011",85.05,85.08,83.95,84.11,"1,069,800",78.86
"Jun 9, 2011",84.68,85.75,84.34,85.26,"726,800",79.93
"Jun 8, 2011",85.23,85.24,84.27,84.45,"1,076,200",79.17
"Jun 7, 2011",84.87,86.26,84.71,85.68,"1,543,000",80.33
"Jun 6, 2011",84.88,85.42,84.05,84.10,"701,100",78.85
"Jun 3, 2011",84.95,85.28,84.39,84.93,"1,092,200",79.62
"Jun 2, 2011",86.63,87.63,85.72,86.17,"1,009,700",80.79
"Jun 1, 2011",88.43,88.64,86.72,86.76,"1,132,800",81.34
"May 31, 2011",88.58,88.93,87.79,88.70,"953,900",83.16
"May 27, 2011",87.56,88.30,87.38,87.80,"623,300",82.32
"May 26, 2011",87.19,87.66,86.40,87.10,"967,200",81.66
"May 25, 2011",85.60,87.65,85.60,87.33,"1,025,200",81.87
"May 24, 2011",86.93,87.54,85.75,85.93,"1,015,000",80.56
"May 23, 2011",86.94,87.00,86.06,86.66,"1,054,700",81.25
"May 20, 2011",88.89,88.89,87.01,88.05,"863,500",82.55
"May 19, 2011",89.53,90.08,88.35,88.93,"784,900",83.37
"May 18, 2011",87.74,89.23,87.22,89.08,"1,118,500",83.52
"May 17, 2011",88.33,88.52,86.83,87.42,"1,434,600",81.96
"May 16, 2011",88.17,89.70,87.90,88.62,"1,145,600",83.08
"May 13, 2011",89.52,90.04,87.82,88.47,"1,020,700",82.94
"May 12, 2011",89.95,90.04,88.53,89.71,"1,147,900",84.11
"May 11, 2011",91.78,91.80,89.58,89.99,"1,167,000",84.37
"May 10, 2011",91.72,92.31,91.30,91.78,"783,300",86.05
"May 9, 2011",90.51,91.62,90.26,91.28,"754,600",85.58
"May 6, 2011",91.09,91.91,89.94,90.39,"1,456,000",84.74
"May 5, 2011",89.97,91.36,89.78,90.24,"1,180,800",84.07
"May 4, 2011",92.03,92.49,89.79,90.39,"1,158,500",84.21
"May 3, 2011",94.24,94.40,91.34,92.10,"1,276,200",85.80
"May 2, 2011",95.00,95.49,94.01,94.13,"765,600",87.69
"Apr 29, 2011",94.59,94.73,93.74,94.67,"1,100,000",88.20
"Apr 28, 2011",93.56,94.31,93.46,94.14,"634,900",87.70
"Apr 27, 2011",94.20,94.29,92.43,93.60,"1,118,600",87.20
"Apr 26, 2011",94.08,94.68,93.56,93.97,"811,100",87.54
"Apr 25, 2011",94.88,95.00,93.20,93.43,"794,600",87.04
"Apr 21, 2011",94.61,95.73,93.92,94.64,"1,075,800",88.17
"Apr 20, 2011",94.45,94.96,93.59,94.54,"1,607,400",88.07
"Apr 19, 2011",91.51,93.19,91.39,93.14,"1,121,200",86.77
"Apr 18, 2011",91.44,91.71,90.14,91.39,"1,333,200",85.14
"Apr 15, 2011",92.77,93.02,91.84,92.65,"1,735,200",86.31
"Apr 14, 2011",92.00,92.88,91.71,92.49,"1,277,100",86.16
"Apr 13, 2011",94.29,94.43,91.60,92.27,"1,754,300",85.96
"Apr 12, 2011",94.13,94.74,93.47,93.76,"965,600",87.35
"Apr 11, 2011",95.47,96.00,94.50,94.94,"785,300",88.45
"Apr 8, 2011",96.40,96.70,94.57,95.34,"898,800",88.82
"Apr 7, 2011",96.39,96.97,95.55,96.07,"999,000",89.50
"Apr 6, 2011",96.85,97.15,96.21,96.41,"1,117,300",89.82
"Apr 5, 2011",96.16,97.81,95.47,96.35,"1,317,600",89.76
"Apr 4, 2011",95.20,96.76,95.18,96.49,"1,445,600",89.89
"Apr 1, 2011",95.53,96.55,94.65,95.10,"1,585,800",88.60
"Mar 31, 2011",95.54,95.95,95.13,95.21,"1,910,500",88.70
"Mar 30, 2011",94.44,96.56,93.70,95.93,"4,751,800",89.37
"Mar 29, 2011",89.39,90.64,89.01,90.59,"1,325,400",84.39
"Mar 28, 2011",89.84,89.99,89.27,89.38,"993,700",83.27
"Mar 25, 2011",89.00,90.00,88.78,89.44,"943,100",83.32
"Mar 24, 2011",88.78,88.98,87.91,88.68,"633,600",82.62
"Mar 23, 2011",87.77,88.60,87.00,88.28,"955,700",82.24
"Mar 22, 2011",88.95,88.97,87.96,88.09,"1,031,000",82.07
"Mar 21, 2011",88.87,88.95,88.21,88.56,"1,423,600",82.50
"Mar 18, 2011",88.57,88.96,87.40,87.46,"2,021,000",81.48
"Mar 17, 2011",87.02,88.70,86.77,87.16,"2,055,500",81.20
"Mar 16, 2011",86.37,87.05,84.69,85.52,"1,806,500",79.67
"Mar 15, 2011",85.29,87.44,85.01,86.80,"1,494,900",80.86
"Mar 14, 2011",87.25,88.18,86.75,87.84,"903,700",81.83
"Mar 11, 2011",86.03,88.00,85.95,87.50,"1,202,400",81.52
"Mar 10, 2011",87.21,87.30,86.00,86.45,"1,358,600",80.54
"Mar 9, 2011",88.51,88.81,87.36,88.05,"861,800",82.03
"Mar 8, 2011",87.86,89.15,87.19,88.83,"806,700",82.75
"Mar 7, 2011",88.93,89.64,86.86,87.52,"1,455,000",81.53
"Mar 4, 2011",89.49,89.81,87.90,88.57,"1,108,800",82.51
"Mar 3, 2011",88.91,89.82,88.89,89.74,"1,041,800",83.60
"Mar 2, 2011",87.41,88.68,87.40,88.01,"1,558,600",81.99
"Mar 1, 2011",88.87,89.16,87.65,87.74,"1,859,300",81.74
"Feb 28, 2011",87.58,88.73,87.55,88.38,"1,337,700",82.34
"Feb 25, 2011",86.73,87.75,86.30,87.43,"1,382,100",81.45
"Feb 24, 2011",86.41,87.26,84.68,85.95,"1,298,400",80.07
"Feb 23, 2011",87.08,87.70,85.15,86.55,"1,739,900",80.63
"Feb 22, 2011",88.74,89.14,86.95,87.06,"1,368,400",81.11
"Feb 18, 2011",89.93,90.34,89.12,90.14,"1,342,300",83.98
"Feb 17, 2011",88.58,89.60,88.35,89.45,"838,400",83.33
"Feb 16, 2011",88.17,89.02,88.12,88.70,"1,173,200",82.63
"Feb 15, 2011",88.26,88.88,88.00,88.35,"1,288,500",81.80
"Feb 14, 2011",88.39,88.86,88.25,88.49,"1,020,400",81.93
"Feb 11, 2011",87.11,88.69,87.02,88.38,"1,015,700",81.82
"Feb 10, 2011",86.07,87.80,85.82,87.52,"1,041,100",81.03
"Feb 9, 2011",86.29,86.65,85.65,86.49,"834,500",80.07
"Feb 8, 2011",86.08,86.90,86.03,86.73,"916,400",80.30
"Feb 7, 2011",86.07,86.88,85.87,86.09,"1,542,400",79.70
"Feb 4, 2011",85.61,86.04,84.95,85.85,"656,800",79.48
"Feb 3, 2011",85.05,85.88,84.42,85.60,"904,600",79.25
"Feb 2, 2011",85.64,85.81,84.92,85.15,"827,300",78.83
"Feb 1, 2011",84.76,86.22,84.76,86.01,"1,592,700",79.63
"Jan 31, 2011",83.43,85.00,83.34,84.28,"2,145,900",78.03
"Jan 28, 2011",84.22,85.35,82.95,83.23,"2,213,000",77.06
"Jan 27, 2011",84.00,84.52,83.46,83.92,"1,259,900",77.69
"Jan 26, 2011",84.00,85.44,83.72,84.79,"1,432,100",78.50
"Jan 25, 2011",83.13,83.96,82.75,83.58,"1,167,900",77.38
"Jan 24, 2011",82.25,83.34,82.08,83.31,"1,545,500",77.13
"Jan 21, 2011",82.08,82.93,81.81,82.15,"1,782,500",76.06
"Jan 20, 2011",80.49,81.90,78.75,81.36,"3,039,400",75.32
"Jan 19, 2011",83.24,83.41,82.11,82.79,"1,716,600",76.65
"Jan 18, 2011",83.29,83.56,83.03,83.19,"1,066,700",77.02
"Jan 14, 2011",82.73,83.32,82.23,83.14,"859,600",76.97
"Jan 13, 2011",82.80,83.08,82.38,82.54,"663,100",76.42
"Jan 12, 2011",82.56,83.17,82.41,83.01,"821,500",76.85
"Jan 11, 2011",82.63,82.99,81.90,82.03,"1,195,900",75.94
"Jan 10, 2011",82.08,82.88,81.11,82.58,"1,536,200",76.45
"Jan 7, 2011",83.06,83.54,81.80,82.32,"1,658,100",76.21
"Jan 6, 2011",83.86,83.99,83.34,83.60,"1,321,200",77.40
"Jan 5, 2011",83.28,84.12,83.03,83.90,"1,240,000",77.68
"Jan 4, 2011",84.65,84.69,82.89,83.43,"1,171,200",77.24
"Jan 3, 2011",84.51,85.05,84.31,84.69,"931,200",78.41
"Dec 31, 2010",83.86,84.59,83.69,84.07,"754,300",77.83
"Dec 30, 2010",83.95,84.28,83.58,83.85,"788,400",77.63
"Dec 29, 2010",83.85,84.46,83.85,84.21,"725,800",77.96
"Dec 28, 2010",82.95,84.06,82.93,83.85,"967,100",77.63
"Dec 27, 2010",82.42,83.20,82.30,83.02,"524,400",76.86
"Dec 23, 2010",82.60,83.00,82.44,82.80,"484,700",76.66
"Dec 22, 2010",82.73,82.85,82.23,82.64,"502,900",76.51
"Dec 21, 2010",82.50,82.95,82.39,82.48,"985,000",76.36
"Dec 20, 2010",81.95,82.49,81.77,82.36,"884,300",76.25
"Dec 17, 2010",81.64,82.16,81.03,82.01,"2,307,200",75.93
"Dec 16, 2010",81.99,81.99,81.02,81.46,"1,759,900",75.42
"Dec 15, 2010",81.15,82.59,81.15,82.10,"1,387,300",76.01
"Dec 14, 2010",80.70,81.60,80.48,81.33,"1,045,100",75.30
"Dec 13, 2010",80.98,81.30,80.46,80.46,"1,219,100",74.49
"Dec 10, 2010",80.43,80.92,80.18,80.90,"976,900",74.90
"Dec 9, 2010",80.24,80.24,79.52,80.05,"885,600",74.11
"Dec 8, 2010",80.40,80.80,79.60,79.84,"1,006,800",73.92
"Dec 7, 2010",80.77,80.99,80.32,80.45,"1,198,800",74.48
"Dec 6, 2010",80.43,80.50,79.78,79.95,"950,000",74.02
"Dec 3, 2010",79.82,80.99,79.68,80.80,"1,007,900",74.81
"Dec 2, 2010",79.77,80.29,79.52,80.19,"1,259,500",74.24
"Dec 1, 2010",79.12,79.95,78.99,79.86,"1,161,300",73.94
"Nov 30, 2010",77.02,78.50,76.75,77.96,"2,089,900",72.18
"Nov 29, 2010",77.00,77.95,76.21,77.80,"1,277,800",72.03
"Nov 26, 2010",76.97,78.00,76.87,77.63,"615,800",71.87
"Nov 24, 2010",76.41,77.82,76.41,77.79,"761,600",72.02
"Nov 23, 2010",76.30,76.42,75.35,75.92,"861,600",70.29
"Nov 22, 2010",76.93,77.56,76.01,77.35,"746,700",71.61
"Nov 19, 2010",77.41,77.74,76.91,77.38,"944,800",71.64
"Nov 18, 2010",77.12,78.02,77.00,77.55,"989,000",71.80
"Nov 17, 2010",75.68,76.64,75.35,76.08,"1,128,800",70.44
"Nov 16, 2010",76.29,76.38,75.02,75.58,"1,544,200",69.97
"Nov 15, 2010",76.91,77.87,76.72,76.86,"1,150,200",71.16
"Nov 12, 2010",77.11,77.80,76.40,76.78,"1,010,700",71.08
"Nov 11, 2010",77.37,78.48,77.14,78.11,"1,093,800",72.32
"Nov 10, 2010",78.13,78.33,77.12,78.02,"1,472,400",72.23
"Nov 9, 2010",79.20,79.42,77.94,78.26,"869,700",72.45
"Nov 8, 2010",78.96,79.37,78.66,79.09,"1,073,700",73.22
"Nov 5, 2010",79.06,79.84,78.66,79.67,"1,273,900",73.25
"Nov 4, 2010",78.69,79.41,78.53,79.13,"1,175,800",72.75
"Nov 3, 2010",77.69,78.22,76.90,77.89,"1,191,200",71.61
"Nov 2, 2010",77.29,78.14,77.29,77.64,"969,900",71.38
"Nov 1, 2010",77.12,77.86,76.25,76.67,"1,436,300",70.49
"Oct 29, 2010",76.27,77.16,76.10,76.70,"1,022,500",70.52
"Oct 28, 2010",77.22,77.60,76.10,76.60,"940,100",70.43
"Oct 27, 2010",76.30,76.88,75.84,76.77,"1,004,100",70.58
"Oct 26, 2010",76.71,77.68,76.26,77.30,"1,263,600",71.07
"Oct 25, 2010",76.90,78.00,76.62,77.33,"1,173,300",71.10
"Oct 22, 2010",77.38,77.38,76.25,76.43,"1,102,300",70.27
"Oct 21, 2010",76.49,77.37,75.95,76.67,"1,669,200",70.49
"Oct 20, 2010",75.93,77.95,75.40,77.46,"1,264,000",71.22
"Oct 19, 2010",75.81,76.79,75.26,75.77,"1,303,300",69.66
"Oct 18, 2010",76.85,77.07,76.39,76.88,"982,100",70.69
"Oct 15, 2010",77.04,77.34,75.83,76.77,"1,527,100",70.58
"Oct 14, 2010",76.19,76.55,75.87,76.33,"1,490,700",70.18
"Oct 13, 2010",75.85,76.62,75.85,76.24,"1,074,400",70.10
"Oct 12, 2010",74.62,75.65,74.26,75.50,"1,063,400",69.42
"Oct 11, 2010",75.37,75.59,74.73,75.00,"766,600",68.96
"Oct 8, 2010",74.51,75.45,74.46,75.21,"764,700",69.15
"Oct 7, 2010",75.00,75.00,73.92,74.55,"932,700",68.54
"Oct 6, 2010",73.76,74.96,73.76,74.76,"1,240,000",68.74
"Oct 5, 2010",72.93,74.35,72.76,74.00,"1,408,300",68.04
"Oct 4, 2010",72.76,73.07,72.10,72.24,"1,296,900",66.42
"Oct 1, 2010",73.50,73.50,72.68,73.09,"607,600",67.20
"Sep 30, 2010",73.50,73.99,72.33,72.80,"1,811,600",66.93
"Sep 29, 2010",72.76,73.50,72.53,72.90,"1,364,400",67.03
"Sep 28, 2010",73.05,73.32,71.64,73.14,"1,296,800",67.25
"Sep 27, 2010",72.93,73.20,72.58,72.78,"668,900",66.92
"Sep 24, 2010",72.51,73.18,72.07,72.92,"991,500",67.04
"Sep 23, 2010",71.61,72.32,71.11,71.45,"1,048,600",65.69
"Sep 22, 2010",72.07,72.91,72.07,72.08,"1,444,300",66.27
"Sep 21, 2010",72.43,72.74,71.63,72.19,"1,739,600",66.37
"Sep 20, 2010",72.38,72.93,72.00,72.66,"1,346,800",66.81
"Sep 17, 2010",72.29,72.73,71.68,72.05,"1,246,000",66.24
"Sep 16, 2010",71.27,72.31,71.11,72.23,"1,496,000",66.41
"Sep 15, 2010",71.11,71.89,70.29,71.63,"1,171,200",65.86
"Sep 14, 2010",71.22,71.61,70.95,71.34,"1,329,100",65.59
"Sep 13, 2010",71.49,71.91,71.40,71.64,"1,506,000",65.87
"Sep 10, 2010",69.55,71.00,69.52,70.77,"1,709,900",65.07
"Sep 9, 2010",69.97,69.97,69.18,69.31,"718,900",63.72
"Sep 8, 2010",68.28,69.47,68.21,69.10,"1,168,000",63.53
"Sep 7, 2010",69.46,69.57,68.08,68.28,"1,460,100",62.78
"Sep 3, 2010",69.46,70.22,69.46,69.98,"1,204,100",64.34
"Sep 2, 2010",68.40,68.93,68.24,68.92,"679,800",63.37
"Sep 1, 2010",66.83,68.40,66.51,68.16,"1,163,900",62.67
"Aug 31, 2010",65.24,66.13,64.93,65.83,"1,368,700",60.53
"Aug 30, 2010",66.72,66.90,65.47,65.48,"1,049,200",60.20
"Aug 27, 2010",65.75,67.11,64.97,67.10,"1,053,800",61.69
"Aug 26, 2010",65.53,66.44,65.17,65.32,"1,238,000",60.06
"Aug 25, 2010",63.92,65.40,63.12,65.14,"1,635,000",59.89
"Aug 24, 2010",64.32,64.71,64.03,64.21,"1,329,200",59.04
"Aug 23, 2010",65.82,66.17,64.95,65.01,"614,100",59.77
"Aug 20, 2010",65.00,65.54,64.72,65.40,"1,027,300",60.13
"Aug 19, 2010",66.86,66.99,65.04,65.59,"1,200,400",60.30
"Aug 18, 2010",67.72,67.72,66.70,67.25,"1,116,700",61.83
"Aug 17, 2010",67.33,68.25,67.28,67.74,"1,133,300",62.28
"Aug 16, 2010",65.84,66.78,65.45,66.51,"733,500",61.15
"Aug 13, 2010",66.50,66.97,66.27,66.31,"722,000",60.97
"Aug 12, 2010",65.81,67.01,65.76,66.85,"930,200",61.46
"Aug 11, 2010",67.93,67.93,66.72,67.05,"1,144,300",61.65
"Aug 10, 2010",69.23,69.81,68.63,69.34,"1,118,700",63.75
"Aug 9, 2010",69.81,70.16,69.39,69.77,"837,600",64.15
"Aug 6, 2010",69.38,70.09,68.53,69.55,"1,337,000",63.95
"Aug 5, 2010",70.54,70.85,69.59,70.25,"1,535,300",64.08
"Aug 4, 2010",70.28,70.93,70.19,70.88,"1,052,900",64.66
"Aug 3, 2010",70.42,70.99,69.88,70.02,"1,249,100",63.87
"Aug 2, 2010",70.11,71.28,69.99,71.12,"1,272,300",64.88
"Jul 30, 2010",67.90,69.71,67.85,69.47,"1,286,600",63.37
"Jul 29, 2010",69.18,69.76,67.84,68.82,"1,327,800",62.78
"Jul 28, 2010",68.39,69.18,68.39,68.84,"1,229,900",62.80
"Jul 27, 2010",68.83,69.53,68.50,68.80,"2,537,100",62.76
"Jul 26, 2010",67.85,68.24,67.33,68.20,"1,644,900",62.21
"Jul 23, 2010",65.98,67.72,65.82,67.65,"1,273,100",61.71
"Jul 22, 2010",65.44,66.80,65.01,66.00,"1,512,900",60.21
"Jul 21, 2010",65.14,65.51,64.23,64.80,"2,069,500",59.11
"Jul 20, 2010",61.47,64.74,61.47,64.64,"2,793,000",58.97
"Jul 19, 2010",62.82,63.14,61.57,62.15,"1,691,200",56.69
"Jul 16, 2010",64.32,64.48,62.27,62.46,"1,689,300",56.98
"Jul 15, 2010",64.51,65.22,63.60,64.60,"1,442,400",58.93
"Jul 14, 2010",65.02,65.66,63.75,64.52,"2,095,700",58.86
"Jul 13, 2010",64.33,65.60,64.23,65.33,"1,705,800",59.60
"Jul 12, 2010",64.43,64.47,63.21,63.78,"1,675,400",58.18
"Jul 9, 2010",64.13,65.08,63.94,64.62,"1,084,700",58.95
"Jul 8, 2010",63.96,64.60,63.35,64.25,"1,735,800",58.61
"Jul 7, 2010",60.42,63.07,60.31,63.07,"1,588,800",57.53
"Jul 6, 2010",61.25,61.87,59.95,60.56,"1,551,100",55.24
"Jul 2, 2010",61.21,61.68,59.92,60.57,"1,159,000",55.25
"Jul 1, 2010",60.21,61.33,59.69,61.05,"2,383,600",55.69
"Jun 30, 2010",60.99,62.03,60.23,60.41,"1,181,900",55.11
"Jun 29, 2010",61.78,61.78,60.63,61.00,"1,744,600",55.65
"Jun 28, 2010",63.22,63.49,62.39,62.89,"968,700",57.37
"Jun 25, 2010",63.21,63.70,62.37,62.95,"2,615,500",57.42
"Jun 24, 2010",64.61,64.66,63.00,63.11,"1,512,700",57.57
"Jun 23, 2010",65.59,65.82,64.32,65.10,"1,456,000",59.39
"Jun 22, 2010",66.96,67.27,65.50,65.54,"1,348,700",59.79
"Jun 21, 2010",67.71,68.28,66.40,66.81,"1,146,200",60.95
"Jun 18, 2010",66.14,67.29,66.14,66.66,"1,743,400",60.81
"Jun 17, 2010",66.91,66.94,64.70,66.16,"2,227,100",60.35
"Jun 16, 2010",68.50,68.50,66.30,66.54,"2,981,600",60.70
"Jun 15, 2010",64.77,65.60,64.56,65.58,"1,073,900",59.82
"Jun 14, 2010",65.32,65.61,64.02,64.07,"2,047,500",58.45
"Jun 11, 2010",62.78,64.93,62.78,64.78,"2,296,000",59.09
"Jun 10, 2010",62.88,63.69,62.66,63.32,"2,379,600",57.76
"Jun 9, 2010",62.65,63.25,61.58,61.91,"2,723,700",56.48
"Jun 8, 2010",60.56,62.32,60.28,62.13,"2,710,200",56.68
"Jun 7, 2010",61.79,62.45,60.46,60.52,"2,573,000",55.21
"Jun 4, 2010",62.19,63.06,61.60,61.79,"1,823,200",56.37
"Jun 3, 2010",64.80,65.16,63.45,63.96,"1,738,500",58.35
"Jun 2, 2010",62.88,64.76,62.82,64.73,"1,695,100",59.05
"Jun 1, 2010",63.35,64.19,62.54,62.54,"1,544,100",57.05
"May 28, 2010",64.89,65.05,63.89,64.07,"2,078,200",58.45
"May 27, 2010",63.26,65.09,62.72,65.09,"1,895,300",59.38
"May 26, 2010",62.83,62.83,61.46,61.86,"3,220,400",56.43
"May 25, 2010",59.55,62.24,59.01,62.22,"1,946,500",56.76
"May 24, 2010",62.46,62.53,61.52,61.53,"2,180,600",56.13
"May 21, 2010",60.25,62.91,60.11,62.69,"2,628,000",57.19
"May 20, 2010",63.15,63.20,61.56,61.56,"3,127,400",56.16
"May 19, 2010",65.45,65.45,63.29,64.36,"2,591,300",58.71
"May 18, 2010",66.66,68.06,65.59,65.63,"1,977,500",59.87
"May 17, 2010",65.41,66.89,64.82,66.12,"2,162,300",60.32
"May 14, 2010",66.10,66.30,64.54,65.09,"985,500",59.38
"May 13, 2010",67.32,67.95,66.64,66.78,"895,400",60.92
"May 12, 2010",66.81,67.68,66.38,67.64,"894,200",61.70
"May 11, 2010",66.26,67.22,65.90,66.43,"1,423,900",60.60
"May 10, 2010",66.82,67.23,65.75,67.09,"1,532,100",61.20
"May 7, 2010",64.65,66.00,63.35,63.79,"2,307,900",58.19
"May 6, 2010",66.63,67.35,60.89,64.75,"2,422,200",59.07
"May 5, 2010",67.93,68.23,66.92,67.47,"2,214,000",61.06
"May 4, 2010",70.42,70.77,67.83,68.47,"2,017,400",61.96
"May 3, 2010",70.82,71.38,70.39,71.28,"1,456,400",64.50
"Apr 30, 2010",71.44,72.24,70.36,70.37,"1,617,000",63.68
"Apr 29, 2010",70.47,71.31,70.06,71.24,"1,294,900",64.47
"Apr 28, 2010",69.31,70.10,68.84,69.92,"1,285,900",63.27
"Apr 27, 2010",70.81,70.98,68.90,68.96,"1,495,600",62.40
"Apr 26, 2010",71.25,71.81,70.69,70.72,"958,600",64.00
"Apr 23, 2010",70.24,71.28,69.76,71.27,"1,357,500",64.49
"Apr 22, 2010",70.02,70.28,69.36,70.25,"1,831,900",63.57
"Apr 21, 2010",70.08,70.68,69.65,70.49,"964,200",63.79
"Apr 20, 2010",70.37,70.78,69.86,70.41,"1,151,100",63.72
"Apr 19, 2010",69.11,70.30,68.81,70.20,"1,646,000",63.53
"Apr 16, 2010",69.75,70.24,68.64,69.16,"1,717,100",62.58
"Apr 15, 2010",69.75,70.00,68.21,69.73,"2,047,700",63.10
"Apr 14, 2010",69.33,69.56,68.73,69.51,"1,821,500",62.90
"Apr 13, 2010",68.84,69.47,68.20,69.33,"1,079,100",62.74
"Apr 12, 2010",68.79,69.03,68.56,68.89,"1,352,600",62.34
"Apr 9, 2010",68.06,68.68,67.84,68.68,"1,494,200",62.15
"Apr 8, 2010",67.23,68.00,66.87,67.93,"1,487,100",61.47
"Apr 7, 2010",67.26,68.37,67.19,67.45,"1,254,200",61.04
"Apr 6, 2010",66.88,67.85,66.84,67.60,"1,053,200",61.17
"Apr 5, 2010",66.63,67.12,66.18,66.92,"678,800",60.56
"Apr 1, 2010",65.97,66.53,65.97,66.50,"746,500",60.18
"Mar 31, 2010",65.82,66.16,65.24,65.40,"1,139,600",59.18
"Mar 30, 2010",65.89,66.40,65.29,66.05,"597,300",59.77
"Mar 29, 2010",66.30,66.63,65.47,65.76,"904,000",59.51
"Mar 26, 2010",64.94,66.35,64.86,66.07,"1,333,400",59.79
"Mar 25, 2010",65.81,66.06,64.66,64.69,"1,053,300",58.54
"Mar 24, 2010",65.62,65.91,65.00,65.43,"904,400",59.21
"Mar 23, 2010",65.58,66.09,65.11,66.05,"601,900",59.77
"Mar 22, 2010",64.39,65.59,64.09,65.48,"989,300",59.25
"Mar 19, 2010",64.93,65.38,64.68,64.93,"1,565,000",58.76
"Mar 18, 2010",65.73,65.73,64.50,64.74,"1,470,600",58.58
"Mar 17, 2010",64.59,66.08,64.52,65.90,"1,205,700",59.63
"Mar 16, 2010",64.55,64.77,64.08,64.64,"876,900",58.49
"Mar 15, 2010",64.33,64.63,64.04,64.49,"862,800",58.36
"Mar 12, 2010",63.86,64.65,63.63,64.16,"1,252,700",58.06
"Mar 11, 2010",63.33,63.33,62.75,63.29,"956,500",57.27
"Mar 10, 2010",62.98,64.00,62.32,63.70,"1,357,500",57.64
"Mar 9, 2010",63.27,63.56,62.69,62.93,"793,000",56.95
"Mar 8, 2010",63.44,63.74,63.18,63.55,"934,000",57.51
"Mar 5, 2010",63.39,63.50,63.12,63.29,"1,154,600",57.27
"Mar 4, 2010",62.80,63.40,62.50,62.91,"1,156,500",56.93
"Mar 3, 2010",62.78,63.78,62.55,62.94,"1,224,000",56.96
"Mar 2, 2010",62.65,62.87,62.11,62.60,"1,241,500",56.65
"Mar 1, 2010",61.69,62.44,61.25,62.38,"1,014,800",56.45
"Feb 26, 2010",60.99,61.76,60.86,61.54,"1,012,900",55.69
"Feb 25, 2010",61.14,61.25,60.53,61.06,"1,883,200",55.25
"Feb 24, 2010",61.72,62.48,61.32,62.10,"1,188,400",56.20
"Feb 23, 2010",61.91,62.06,61.06,61.45,"989,300",55.61
"Feb 22, 2010",62.54,62.72,61.72,62.07,"843,400",56.17
"Feb 19, 2010",61.78,62.88,61.50,62.48,"1,006,700",56.54
"Feb 18, 2010",61.76,62.26,61.45,62.11,"996,100",56.20
"Feb 17, 2010",61.29,61.95,61.07,61.81,"1,423,800",55.93
"Feb 16, 2010",60.99,61.42,60.52,61.42,"956,500",55.09
"Feb 12, 2010",59.44,60.74,59.08,60.36,"1,475,700",54.14
"Feb 11, 2010",59.58,60.40,59.03,60.23,"1,437,300",54.02
"Feb 10, 2010",59.10,60.06,58.36,59.75,"1,790,400",53.59
"Feb 9, 2010",58.37,59.53,57.94,59.16,"1,532,200",53.06
"Feb 8, 2010",58.36,58.85,57.41,57.68,"1,537,000",51.74
"Feb 5, 2010",57.64,58.50,56.96,58.34,"2,170,000",52.33
"Feb 4, 2010",58.70,58.95,57.55,57.73,"1,446,400",51.78
"Feb 3, 2010",59.59,60.35,58.85,59.21,"1,481,800",53.11
"Feb 2, 2010",59.45,60.50,58.89,59.94,"1,084,200",53.76
"Feb 1, 2010",59.27,59.54,58.87,59.52,"1,364,400",53.39
"Jan 29, 2010",59.36,60.16,58.64,58.68,"2,003,400",52.63
"Jan 28, 2010",59.82,59.82,57.78,59.01,"1,497,200",52.93
"Jan 27, 2010",59.82,59.82,58.39,59.51,"1,630,800",53.38
"Jan 26, 2010",60.69,61.30,59.85,59.97,"1,323,800",53.79
"Jan 25, 2010",60.75,61.43,60.54,61.08,"1,784,200",54.79
"Jan 22, 2010",59.30,60.94,58.91,59.92,"2,977,500",53.75
"Jan 21, 2010",61.26,62.47,59.00,59.10,"5,474,500",53.01
"Jan 20, 2010",63.85,64.12,62.27,63.13,"2,117,600",56.63
"Jan 19, 2010",62.21,64.26,62.02,64.23,"1,666,400",57.61
"Jan 15, 2010",62.74,62.97,61.66,62.05,"1,503,000",55.66
"Jan 14, 2010",62.81,63.68,62.43,62.79,"2,242,700",56.32
"Jan 13, 2010",61.18,61.52,60.42,61.47,"859,200",55.14
"Jan 12, 2010",61.01,61.32,60.16,60.83,"1,114,700",54.56
"Jan 11, 2010",61.88,62.00,61.29,61.68,"994,400",55.32
"Jan 8, 2010",61.72,61.99,61.27,61.75,"1,348,200",55.39
"Jan 7, 2010",61.35,61.89,60.89,61.87,"1,219,800",55.50
"Jan 6, 2010",60.42,62.00,60.42,61.59,"1,514,400",55.24
"Jan 5, 2010",60.40,61.14,60.40,60.64,"1,129,300",54.39
"Jan 4, 2010",59.30,60.64,58.99,60.60,"1,206,700",54.36
"Dec 31, 2009",59.45,59.45,58.49,58.54,"384,700",52.51
"Dec 30, 2009",59.02,59.66,58.75,59.26,"703,900",53.15
"Dec 29, 2009",59.75,60.00,59.17,59.36,"861,700",53.24
"Dec 28, 2009",59.50,60.16,59.36,59.79,"1,140,500",53.63
"Dec 24, 2009",59.35,59.74,59.25,59.57,"165,800",53.43
"Dec 23, 2009",59.14,59.33,58.44,59.30,"626,300",53.19
"Dec 22, 2009",58.54,59.07,58.24,58.87,"697,700",52.80
"Dec 21, 2009",58.08,58.65,57.85,58.23,"683,000",52.23
"Dec 18, 2009",58.74,58.90,57.65,57.78,"1,521,800",51.83
"Dec 17, 2009",59.20,59.20,58.23,58.31,"662,200",52.30
"Dec 16, 2009",59.21,59.61,58.96,59.28,"874,100",53.17
"Dec 15, 2009",59.35,59.98,58.68,58.81,"1,044,100",52.75
"Dec 14, 2009",58.90,59.76,58.65,59.69,"1,074,800",53.54
"Dec 11, 2009",59.42,59.42,58.03,58.51,"1,439,600",52.48
"Dec 10, 2009",59.72,60.13,58.72,59.04,"1,242,100",52.96
"Dec 9, 2009",58.95,59.49,58.15,59.44,"1,017,500",53.32
"Dec 8, 2009",59.87,59.98,58.65,58.84,"1,177,600",52.78
"Dec 7, 2009",60.17,60.81,60.08,60.33,"971,700",54.11
"Dec 4, 2009",60.48,60.64,59.70,60.38,"2,130,200",54.16
"Dec 3, 2009",60.76,60.81,59.55,59.59,"827,400",53.45
"Dec 2, 2009",60.00,61.07,59.68,60.55,"1,076,400",54.31
"Dec 1, 2009",60.05,60.37,59.75,59.91,"930,700",53.74
"Nov 30, 2009",59.33,59.90,58.85,59.43,"918,200",53.31
"Nov 27, 2009",59.24,60.07,58.81,59.33,"409,000",53.22
"Nov 25, 2009",60.12,60.97,59.91,60.67,"587,000",54.42
"Nov 24, 2009",60.39,60.85,59.69,59.85,"1,348,000",53.68
"Nov 23, 2009",59.79,61.15,59.79,60.53,"1,967,800",54.29
"Nov 20, 2009",59.09,59.53,58.67,59.25,"1,092,600",53.15
"Nov 19, 2009",60.17,60.17,58.91,59.48,"1,223,300",53.35
"Nov 18, 2009",61.39,61.39,60.08,60.51,"1,103,700",54.28
"Nov 17, 2009",61.13,61.50,60.78,61.26,"741,000",54.95
"Nov 16, 2009",60.72,61.66,60.72,61.43,"929,000",55.10
"Nov 13, 2009",60.40,60.86,59.76,60.36,"966,300",54.14
"Nov 12, 2009",61.10,61.20,59.81,60.23,"1,087,700",54.02
"Nov 11, 2009",61.49,61.73,60.79,61.18,"818,200",54.88
"Nov 10, 2009",60.71,61.25,60.41,60.97,"1,081,000",54.69
"Nov 9, 2009",59.27,60.87,59.16,60.87,"1,078,800",54.60
"Nov 6, 2009",58.61,59.51,58.21,58.80,"1,064,900",52.74
"Nov 5, 2009",58.15,59.35,57.95,59.19,"1,016,600",52.61
"Nov 4, 2009",58.53,58.70,57.53,57.66,"1,112,800",51.25
"Nov 3, 2009",56.99,58.14,56.17,57.98,"1,301,300",51.53
"Nov 2, 2009",56.74,57.74,56.21,57.49,"1,930,800",51.10
"Oct 30, 2009",58.20,58.20,55.89,56.43,"1,626,500",50.15
"Oct 29, 2009",57.89,58.46,57.55,58.41,"2,080,500",51.91
"Oct 28, 2009",58.99,59.57,57.13,57.25,"2,230,500",50.88
"Oct 27, 2009",58.07,59.47,58.02,59.00,"1,782,600",52.44
"Oct 26, 2009",59.34,60.14,57.82,58.21,"1,436,900",51.74
"Oct 23, 2009",60.77,60.97,59.02,59.34,"1,098,400",52.74
"Oct 22, 2009",59.67,60.86,58.95,60.68,"1,259,100",53.93
"Oct 21, 2009",61.21,61.87,59.54,59.67,"1,579,700",53.03
"Oct 20, 2009",61.92,61.92,60.62,61.21,"1,011,200",54.40
"Oct 19, 2009",61.17,62.31,61.17,61.97,"1,077,100",55.08
"Oct 16, 2009",61.89,61.89,60.73,61.30,"1,879,100",54.48
"Oct 15, 2009",59.85,62.23,59.85,62.08,"2,651,100",55.18
"Oct 14, 2009",61.11,61.85,61.06,61.53,"1,440,900",54.69
"Oct 13, 2009",59.80,60.71,59.72,60.64,"818,200",53.90
"Oct 12, 2009",59.74,60.48,59.69,60.11,"815,000",53.42
"Oct 9, 2009",59.29,59.76,58.92,59.75,"785,000",53.10
"Oct 8, 2009",58.47,59.37,58.29,59.22,"1,211,700",52.63
"Oct 7, 2009",58.03,58.32,57.45,57.87,"679,900",51.43
"Oct 6, 2009",58.03,58.81,57.00,58.03,"1,397,300",51.58
"Oct 5, 2009",56.52,57.64,56.20,57.54,"1,069,100",51.14
"Oct 2, 2009",55.94,56.93,55.27,56.26,"1,178,800",50.00
"Oct 1, 2009",58.20,58.34,56.49,56.56,"1,496,500",50.27
"Sep 30, 2009",58.78,59.03,57.63,58.21,"2,281,700",51.74
"Sep 29, 2009",58.75,59.51,58.62,58.74,"1,009,600",52.21
"Sep 28, 2009",58.05,59.25,57.81,58.76,"1,046,100",52.22
"Sep 25, 2009",58.10,58.52,57.33,57.65,"1,198,100",51.24
"Sep 24, 2009",59.33,59.63,58.17,58.52,"1,054,800",52.01
"Sep 23, 2009",60.38,60.38,59.00,59.05,"1,784,600",52.48
"Sep 22, 2009",60.43,60.44,59.85,60.12,"1,326,900",53.43
"Sep 21, 2009",58.82,60.01,58.43,59.69,"1,969,400",53.05
"Sep 18, 2009",59.41,60.01,59.33,59.65,"1,771,700",53.02
"Sep 17, 2009",59.95,60.23,58.86,59.28,"2,368,500",52.69
"Sep 16, 2009",60.05,60.45,59.67,59.89,"2,886,500",53.23
"Sep 15, 2009",57.92,59.60,57.58,59.41,"2,242,200",52.80
"Sep 14, 2009",56.94,57.95,56.52,57.91,"1,066,500",51.47
"Sep 11, 2009",57.22,57.65,56.72,57.30,"1,578,900",50.93
"Sep 10, 2009",56.40,57.08,55.91,56.99,"2,387,700",50.65
"Sep 9, 2009",55.29,56.64,54.84,56.46,"2,543,800",50.18
"Sep 8, 2009",55.14,55.60,54.76,55.39,"2,267,000",49.23
"Sep 4, 2009",54.06,54.92,53.50,54.89,"1,574,900",48.79
"Sep 3, 2009",54.30,54.30,53.47,54.11,"1,387,700",48.09
"Sep 2, 2009",53.82,54.19,53.31,53.93,"1,682,300",47.93
"Sep 1, 2009",55.07,55.86,53.93,54.08,"1,745,000",48.07
"Aug 31, 2009",55.24,55.47,54.77,55.40,"1,290,600",49.24
"Aug 28, 2009",55.54,56.42,54.90,55.94,"2,482,000",49.72
"Aug 27, 2009",53.66,55.41,53.06,55.19,"2,583,800",49.05
"Aug 26, 2009",54.16,54.75,53.50,53.74,"1,317,700",47.76
"Aug 25, 2009",54.60,55.43,54.16,54.29,"1,315,700",48.25
"Aug 24, 2009",54.88,55.23,54.01,54.15,"969,400",48.13
"Aug 21, 2009",53.63,54.70,53.31,54.55,"1,141,600",48.48
"Aug 20, 2009",53.43,53.73,52.65,53.15,"1,172,000",47.24
"Aug 19, 2009",52.38,53.82,52.25,53.43,"2,072,900",47.49
"Aug 18, 2009",53.04,53.43,52.34,52.95,"1,658,400",47.06
"Aug 17, 2009",54.18,54.18,52.75,52.97,"1,657,100",47.08
"Aug 14, 2009",55.57,55.90,54.02,54.58,"1,142,400",48.51
"Aug 13, 2009",55.56,56.41,55.38,55.90,"1,847,500",49.68
"Aug 12, 2009",54.90,55.92,54.80,55.53,"2,724,400",49.35
"Aug 11, 2009",54.77,55.45,54.57,55.15,"1,501,700",49.02
"Aug 10, 2009",56.05,56.05,54.83,55.09,"1,738,500",48.96
"Aug 7, 2009",56.64,56.64,55.56,56.20,"2,223,500",49.95
"Aug 6, 2009",57.06,57.14,55.86,56.16,"1,663,900",49.91
"Aug 5, 2009",57.27,57.45,56.12,57.11,"1,725,700",50.29
"Aug 4, 2009",56.34,57.08,56.18,57.04,"1,416,400",50.23
"Aug 3, 2009",55.60,56.92,55.35,56.82,"1,447,600",50.03
"Jul 31, 2009",54.20,55.61,54.20,55.00,"1,793,100",48.43
"Jul 30, 2009",52.43,54.85,52.33,54.41,"2,489,700",47.91
"Jul 29, 2009",52.01,52.49,51.29,51.88,"1,505,200",45.68
"Jul 28, 2009",52.35,52.74,51.80,52.55,"982,900",46.27
"Jul 27, 2009",52.45,53.30,52.22,52.81,"1,026,900",46.50
"Jul 24, 2009",52.13,52.56,51.44,52.56,"1,116,800",46.28
"Jul 23, 2009",50.75,52.57,50.52,52.47,"2,134,200",46.20
"Jul 22, 2009",50.02,51.34,50.01,50.75,"1,275,700",44.69
"Jul 21, 2009",50.93,51.90,49.37,50.43,"2,239,600",44.41
"Jul 20, 2009",49.93,50.67,49.54,50.45,"2,194,200",44.42
"Jul 17, 2009",48.85,50.15,48.81,49.56,"2,407,200",43.64
"Jul 16, 2009",47.15,49.50,47.10,49.27,"5,019,300",43.38
"Jul 15, 2009",44.79,46.11,44.77,46.10,"2,016,700",40.59
"Jul 14, 2009",43.56,44.41,43.33,44.13,"1,331,200",38.86
"Jul 13, 2009",41.88,43.68,41.59,43.57,"1,995,400",38.36
"Jul 10, 2009",41.77,42.25,41.21,41.94,"1,323,600",36.93
"Jul 9, 2009",42.14,42.42,41.67,42.11,"885,100",37.08
"Jul 8, 2009",41.71,42.08,41.37,41.82,"1,749,900",36.82
"Jul 7, 2009",43.05,43.05,41.57,41.62,"1,508,800",36.65
"Jul 6, 2009",42.00,43.12,41.58,43.02,"1,383,600",37.88
"Jul 2, 2009",43.06,43.78,42.15,42.15,"1,084,000",37.11
"Jul 1, 2009",43.86,44.30,43.48,43.78,"1,260,000",38.55
"Jun 30, 2009",43.95,44.43,43.45,43.90,"1,695,900",38.66
"Jun 29, 2009",43.57,44.16,43.11,43.86,"1,134,500",38.62
"Jun 26, 2009",43.74,43.97,43.35,43.57,"1,763,900",38.36
"Jun 25, 2009",42.83,43.86,42.50,43.84,"1,367,600",38.60
"Jun 24, 2009",41.97,43.40,41.75,42.97,"2,062,100",37.84
"Jun 23, 2009",41.69,41.74,41.09,41.51,"2,029,000",36.55
"Jun 22, 2009",42.29,42.51,41.63,41.66,"2,125,900",36.68
"Jun 19, 2009",43.17,43.29,42.50,42.82,"2,059,600",37.70
"Jun 18, 2009",43.30,43.92,42.85,42.94,"1,380,200",37.81
"Jun 17, 2009",42.93,43.64,42.40,43.24,"1,454,100",38.07
"Jun 16, 2009",44.34,44.34,43.00,43.07,"1,704,700",37.92
"Jun 15, 2009",44.94,44.94,43.70,43.98,"1,216,500",38.73
"Jun 12, 2009",45.76,45.76,44.88,45.13,"2,123,800",39.74
"Jun 11, 2009",45.36,46.06,45.30,45.45,"1,208,000",40.02
"Jun 10, 2009",45.87,45.90,44.24,45.25,"2,081,600",39.84
"Jun 9, 2009",44.51,45.70,44.16,45.52,"1,510,800",40.08
"Jun 8, 2009",44.86,45.00,43.40,44.29,"1,580,500",39.00
"Jun 5, 2009",45.86,46.00,44.55,45.04,"1,732,400",39.66
"Jun 4, 2009",44.76,45.25,44.28,45.00,"1,302,500",39.62
"Jun 3, 2009",45.25,45.40,43.91,44.60,"1,651,700",39.27
"Jun 2, 2009",45.84,46.03,45.50,45.63,"1,532,700",40.18
"Jun 1, 2009",45.17,46.29,44.83,46.04,"1,187,900",40.54
"May 29, 2009",44.46,44.47,43.51,44.47,"1,270,800",39.16
"May 28, 2009",44.34,44.47,42.94,44.09,"1,537,100",38.82
"May 27, 2009",45.00,45.32,43.72,43.81,"1,213,000",38.58
"May 26, 2009",44.44,45.27,43.84,45.02,"2,028,000",39.64
"May 22, 2009",44.20,45.14,43.95,44.63,"906,100",39.30
"May 21, 2009",45.10,45.10,43.58,44.03,"1,990,100",38.77
"May 20, 2009",44.96,46.79,44.71,45.50,"2,836,300",40.06
"May 19, 2009",44.00,45.04,43.75,44.66,"1,577,200",39.32
"May 18, 2009",42.63,44.14,42.56,44.08,"1,218,600",38.81
"May 15, 2009",42.63,43.18,41.82,42.20,"1,520,800",37.16
"May 14, 2009",41.73,42.92,41.63,42.41,"1,240,400",37.34
"May 13, 2009",42.96,43.00,41.77,41.89,"2,117,600",36.89
"May 12, 2009",43.89,44.10,42.86,43.69,"1,640,000",38.47
"May 11, 2009",44.10,44.31,43.08,43.54,"1,690,600",38.34
"May 8, 2009",44.08,44.78,43.53,44.72,"1,907,400",39.38
"May 7, 2009",45.76,46.91,43.27,43.73,"2,655,200",38.51
"May 6, 2009",46.23,46.32,45.11,45.93,"1,847,500",39.98
"May 5, 2009",46.71,46.75,45.18,45.77,"1,608,900",39.84
"May 4, 2009",44.24,46.58,43.97,46.50,"1,815,800",40.47
"May 1, 2009",43.98,44.54,43.56,44.02,"1,482,100",38.31
"Apr 30, 2009",44.64,45.07,43.61,44.05,"1,654,200",38.34
"Apr 29, 2009",43.77,44.61,43.76,44.12,"1,377,100",38.40
"Apr 28, 2009",43.52,43.77,42.90,43.24,"1,799,500",37.63
"Apr 27, 2009",44.81,44.97,43.55,44.03,"1,638,600",38.32
"Apr 24, 2009",43.44,45.78,43.44,45.46,"2,059,300",39.57
"Apr 23, 2009",44.10,44.46,42.32,43.45,"1,723,700",37.82
"Apr 22, 2009",42.80,45.28,42.80,44.08,"1,912,200",38.37
"Apr 21, 2009",42.80,43.73,42.25,43.64,"2,538,800",37.98
"Apr 20, 2009",45.33,45.33,42.60,43.19,"2,930,600",37.59
"Apr 17, 2009",46.14,46.15,44.15,45.29,"2,298,300",39.42
"Apr 16, 2009",44.67,46.30,44.06,46.11,"3,027,000",40.13
"Apr 15, 2009",44.05,44.44,43.66,44.44,"2,607,900",38.68
"Apr 14, 2009",44.72,45.41,43.78,44.13,"1,663,900",38.41
"Apr 13, 2009",44.65,45.55,43.55,45.13,"1,651,200",39.28
"Apr 9, 2009",43.77,45.02,43.44,44.97,"1,676,000",39.14
"Apr 8, 2009",42.97,43.16,41.88,42.87,"2,665,000",37.31
"Apr 7, 2009",43.49,43.74,41.91,42.80,"3,477,900",37.25
"Apr 6, 2009",44.18,44.43,43.66,44.27,"2,987,200",38.53
"Apr 3, 2009",41.12,44.56,41.02,44.56,"4,038,400",38.78
"Apr 2, 2009",40.30,42.40,39.80,42.05,"3,758,700",36.60
"Apr 1, 2009",36.44,39.63,35.61,39.47,"3,666,600",34.35
"Mar 31, 2009",37.30,37.53,36.40,36.90,"2,135,700",32.12
"Mar 30, 2009",36.34,36.94,35.33,36.87,"3,929,700",32.09
"Mar 27, 2009",37.75,37.75,35.50,36.80,"3,932,100",32.03
"Mar 26, 2009",37.22,39.05,37.19,38.71,"2,068,300",33.69
"Mar 25, 2009",36.59,38.06,35.66,36.88,"2,391,800",32.10
"Mar 24, 2009",36.59,37.36,36.33,36.59,"1,644,400",31.85
"Mar 23, 2009",35.43,37.00,35.03,37.00,"1,550,400",32.20
"Mar 20, 2009",35.16,35.42,34.49,34.71,"3,269,100",30.21
"Mar 19, 2009",35.33,35.55,34.74,35.10,"2,060,200",30.55
"Mar 18, 2009",34.08,35.31,33.32,34.99,"2,301,100",30.45
"Mar 17, 2009",32.93,33.97,32.41,33.97,"2,004,900",29.57
"Mar 16, 2009",33.36,33.73,32.79,32.94,"2,949,800",28.67
"Mar 13, 2009",33.07,33.37,32.63,33.00,"4,390,400",28.72
"Mar 12, 2009",32.84,34.56,32.59,34.34,"3,885,900",29.89
"Mar 11, 2009",32.97,33.22,32.45,32.91,"2,650,200",28.64
"Mar 10, 2009",29.85,32.72,29.85,32.69,"3,112,400",28.45
"Mar 9, 2009",29.19,29.88,28.98,29.50,"3,341,100",25.68
"Mar 6, 2009",28.72,29.76,28.16,29.42,"4,808,400",25.61
"Mar 5, 2009",30.00,30.17,28.16,28.48,"3,574,600",24.79
"Mar 4, 2009",30.24,31.41,30.05,30.92,"2,610,300",26.91
"Mar 3, 2009",30.54,30.75,29.61,29.80,"3,638,000",25.94
"Mar 2, 2009",30.68,30.93,29.89,30.04,"2,651,700",26.15
"Feb 27, 2009",30.85,31.90,30.65,31.06,"1,848,500",27.03
"Feb 26, 2009",32.05,32.91,31.34,31.44,"1,737,400",27.36
"Feb 25, 2009",32.59,32.78,31.64,31.98,"2,188,900",27.83
"Feb 24, 2009",31.31,32.71,30.80,32.48,"2,375,800",28.27
"Feb 23, 2009",33.25,33.25,31.04,31.08,"2,567,500",27.05
"Feb 20, 2009",33.07,33.79,31.60,32.67,"3,215,100",28.44
"Feb 19, 2009",34.80,35.09,33.24,33.43,"2,384,900",29.10
"Feb 18, 2009",34.27,34.63,33.38,34.09,"1,895,600",29.67
"Feb 17, 2009",35.28,35.98,34.38,34.38,"2,011,700",29.46
"Feb 13, 2009",36.71,36.86,34.00,36.21,"1,573,200",31.03
"Feb 12, 2009",37.00,37.09,35.62,36.92,"1,788,800",31.64
"Feb 11, 2009",37.69,37.95,36.87,37.36,"1,262,700",32.02
"Feb 10, 2009",38.97,39.70,37.12,37.39,"2,052,700",32.04
"Feb 9, 2009",39.05,40.15,38.68,39.26,"1,441,300",33.64
"Feb 6, 2009",37.64,39.32,37.64,39.12,"1,426,000",33.52
"Feb 5, 2009",36.41,38.03,36.09,37.66,"2,400,900",32.27
"Feb 4, 2009",37.31,37.32,36.38,36.47,"2,903,900",31.25
"Feb 3, 2009",37.68,38.05,36.84,37.00,"3,656,400",31.71
"Feb 2, 2009",37.17,37.94,36.40,37.49,"1,372,100",32.13
"Jan 30, 2009",39.33,39.50,37.41,37.58,"1,898,900",32.20
"Jan 29, 2009",40.43,40.79,39.24,39.38,"1,315,500",33.75
"Jan 28, 2009",39.99,41.26,39.64,40.91,"1,757,800",35.06
"Jan 27, 2009",39.16,39.74,38.31,39.13,"2,046,900",33.53
"Jan 26, 2009",39.51,40.23,38.37,38.85,"1,663,800",33.29
"Jan 23, 2009",38.51,39.85,38.20,39.21,"2,205,000",33.60
"Jan 22, 2009",39.25,40.03,38.79,39.29,"2,631,000",33.67
"Jan 21, 2009",40.32,40.60,38.78,40.46,"3,424,700",34.67
"Jan 20, 2009",41.08,41.42,39.35,39.60,"3,760,500",33.94
"Jan 16, 2009",39.64,41.96,39.64,41.43,"2,620,400",35.50
"Jan 15, 2009",40.21,42.22,39.64,41.41,"2,633,900",35.49
"Jan 14, 2009",40.83,41.42,40.01,40.27,"1,567,500",34.51
"Jan 13, 2009",42.31,42.45,41.31,41.70,"1,915,600",35.74
"Jan 12, 2009",43.11,43.32,42.25,42.58,"1,034,900",36.49
"Jan 9, 2009",44.44,44.75,43.03,43.31,"1,169,900",37.11
"Jan 8, 2009",42.94,44.23,42.50,44.19,"1,041,900",37.87
"Jan 7, 2009",44.77,44.77,42.94,43.14,"1,503,300",36.97
"Jan 6, 2009",43.70,45.45,43.52,45.03,"1,607,300",38.59
"Jan 5, 2009",43.22,43.82,42.50,43.28,"1,188,100",37.09
"Jan 2, 2009",42.45,43.73,41.70,43.55,"1,276,100",37.32
"Dec 31, 2008",40.28,42.64,40.28,42.43,"1,853,300",36.36
"Dec 30, 2008",39.01,40.47,38.75,40.47,"1,509,000",34.68
"Dec 29, 2008",39.57,39.57,38.37,38.83,"1,429,800",33.28
"Dec 26, 2008",39.25,39.52,38.34,39.39,"853,000",33.76
"Dec 24, 2008",39.10,39.35,38.71,38.83,"1,035,800",33.28
"Dec 23, 2008",40.34,40.54,38.70,38.93,"2,367,700",33.36
"Dec 22, 2008",42.04,42.27,39.12,39.71,"4,060,400",34.03
"Dec 19, 2008",43.00,43.98,41.30,41.46,"2,795,700",35.53
"Dec 18, 2008",44.46,44.78,42.55,42.70,"1,514,500",36.59
"Dec 17, 2008",45.40,46.00,44.08,44.50,"1,612,000",38.13
"Dec 16, 2008",43.93,46.15,43.70,45.95,"1,296,900",39.38
"Dec 15, 2008",44.38,44.69,42.77,43.55,"1,236,800",37.32
"Dec 12, 2008",42.09,44.40,40.99,43.89,"1,394,300",37.61
"Dec 11, 2008",44.67,45.13,42.12,42.61,"1,301,100",36.51
"Dec 10, 2008",45.00,45.46,43.75,44.75,"1,168,500",38.35
"Dec 9, 2008",45.37,46.47,44.34,44.49,"1,181,700",38.13
"Dec 8, 2008",44.43,46.33,44.35,45.81,"1,597,600",39.26
"Dec 5, 2008",41.59,43.64,40.04,43.50,"1,325,100",37.28
"Dec 4, 2008",41.81,43.37,41.39,42.07,"1,201,400",36.05
"Dec 3, 2008",41.00,43.39,40.45,43.09,"1,345,500",36.93
"Dec 2, 2008",40.16,41.85,39.90,41.80,"1,254,300",35.82
"Dec 1, 2008",41.75,42.49,39.45,39.59,"1,732,700",33.93
"Nov 28, 2008",43.59,44.27,43.20,43.92,"472,900",37.64
"Nov 26, 2008",42.00,43.92,41.17,43.89,"1,067,100",37.61
"Nov 25, 2008",42.28,43.41,40.82,42.53,"1,465,000",36.45
"Nov 24, 2008",39.15,42.77,39.15,41.69,"2,353,100",35.73
"Nov 21, 2008",37.87,38.73,35.94,38.52,"3,394,900",33.01
"Nov 20, 2008",40.77,42.10,36.86,36.98,"2,712,400",31.69
"Nov 19, 2008",43.98,44.74,41.00,41.19,"1,595,600",35.30
"Nov 18, 2008",44.00,45.47,43.01,44.35,"1,490,300",38.01
"Nov 17, 2008",45.07,46.42,44.10,44.11,"1,519,100",37.80
"Nov 14, 2008",47.86,47.97,45.25,45.38,"1,189,400",38.89
"Nov 13, 2008",44.55,48.52,43.60,48.38,"2,134,600",41.46
"Nov 12, 2008",45.00,45.75,44.07,44.19,"1,705,500",37.87
"Nov 11, 2008",46.62,46.76,44.65,45.87,"1,948,400",39.31
"Nov 10, 2008",48.32,48.48,45.31,46.05,"1,076,000",39.46
"Nov 7, 2008",44.90,46.86,44.52,46.81,"1,534,600",40.11
"Nov 6, 2008",47.73,48.35,44.28,44.67,"2,538,200",38.28
"Nov 5, 2008",50.88,51.45,48.12,48.22,"1,402,600",40.87
"Nov 4, 2008",51.00,51.92,50.40,51.52,"1,264,400",43.67
"Nov 3, 2008",49.24,50.66,49.10,50.03,"778,900",42.40
"Oct 31, 2008",48.90,50.25,48.19,49.58,"1,175,700",42.02
"Oct 30, 2008",49.09,49.60,47.16,49.20,"983,600",41.70
"Oct 29, 2008",46.18,49.78,46.18,47.87,"1,685,700",40.57
"Oct 28, 2008",45.21,47.88,43.00,47.85,"1,952,000",40.55
"Oct 27, 2008",44.59,46.73,43.84,43.88,"1,434,100",37.19
"Oct 24, 2008",43.38,46.52,43.02,45.11,"1,456,900",38.23
"Oct 23, 2008",47.20,48.94,44.22,46.35,"2,063,600",39.28
"Oct 22, 2008",49.36,49.36,45.06,46.70,"1,973,900",39.58
"Oct 21, 2008",51.48,52.06,49.38,49.66,"1,794,100",42.09
"Oct 20, 2008",48.73,50.50,48.01,50.50,"1,250,600",42.80
"Oct 17, 2008",47.41,50.79,47.41,48.17,"2,057,900",40.83
"Oct 16, 2008",43.46,51.09,43.46,51.09,"4,041,300",43.30
"Oct 15, 2008",49.48,49.48,43.86,44.49,"1,823,200",37.71
"Oct 14, 2008",52.34,53.04,49.05,50.27,"2,107,000",42.61
"Oct 13, 2008",47.75,51.22,46.61,50.99,"1,805,900",43.22
"Oct 10, 2008",45.97,48.96,43.63,46.30,"2,791,100",39.24
"Oct 9, 2008",51.07,52.47,47.18,47.27,"2,108,000",40.06
"Oct 8, 2008",49.70,53.99,49.49,50.97,"2,562,900",43.20
"Oct 7, 2008",55.16,55.45,50.34,50.66,"2,503,700",42.94
"Oct 6, 2008",54.60,55.03,51.54,54.67,"2,007,100",46.33
"Oct 3, 2008",56.40,57.48,55.00,55.11,"1,555,100",46.71
"Oct 2, 2008",57.89,57.89,55.57,55.69,"1,458,000",47.20
"Oct 1, 2008",57.82,59.10,56.68,57.92,"1,489,000",49.09
"Sep 30, 2008",58.86,58.86,57.58,58.32,"1,672,200",49.43
"Sep 29, 2008",60.56,61.65,57.09,57.65,"2,340,300",48.86
"Sep 26, 2008",60.14,61.56,60.06,61.44,"1,263,800",52.07
"Sep 25, 2008",59.93,61.99,59.30,61.16,"1,682,900",51.84
"Sep 24, 2008",61.96,61.96,59.12,59.74,"2,586,000",50.63
"Sep 23, 2008",64.80,65.50,62.11,62.22,"2,089,300",52.73
"Sep 22, 2008",66.33,67.83,64.50,64.80,"1,577,000",54.92
"Sep 19, 2008",67.21,69.89,66.77,66.97,"3,011,400",56.76
"Sep 18, 2008",67.27,68.63,63.90,67.31,"4,233,800",57.05
"Sep 17, 2008",66.04,66.73,63.73,66.50,"2,675,000",56.36
"Sep 16, 2008",65.66,67.59,64.05,67.35,"2,240,600",57.08
"Sep 15, 2008",65.46,69.05,65.46,66.63,"1,715,400",56.47
"Sep 12, 2008",66.25,67.83,65.94,67.77,"1,568,600",57.44
"Sep 11, 2008",64.07,66.77,63.65,66.67,"1,715,100",56.51
"Sep 10, 2008",65.15,65.70,64.26,64.88,"2,447,300",54.99
"Sep 9, 2008",65.61,66.46,64.56,64.61,"1,776,000",54.76
"Sep 8, 2008",65.10,66.28,64.69,65.85,"1,604,000",55.81
"Sep 5, 2008",65.07,65.35,63.90,65.09,"1,662,200",55.17
"Sep 4, 2008",66.39,66.39,64.07,65.54,"1,874,000",55.55
"Sep 3, 2008",66.39,67.70,65.96,66.73,"2,346,300",56.56
"Sep 2, 2008",64.09,65.97,63.60,65.29,"2,071,200",55.34
"Aug 29, 2008",63.29,63.57,62.82,62.86,"818,200",53.28
"Aug 28, 2008",62.41,63.66,62.20,63.51,"1,363,100",53.83
"Aug 27, 2008",61.71,62.20,61.62,61.92,"597,900",52.48
"Aug 26, 2008",61.28,61.74,60.80,61.74,"1,017,600",52.33
"Aug 25, 2008",62.27,62.32,60.60,61.34,"1,285,700",51.99
"Aug 22, 2008",62.48,63.18,62.00,62.45,"1,206,900",52.93
"Aug 21, 2008",63.05,63.14,61.94,62.49,"1,202,900",52.96
"Aug 20, 2008",62.75,63.49,62.43,63.43,"758,000",53.76
"Aug 19, 2008",63.83,64.35,62.75,63.09,"961,300",53.47
"Aug 18, 2008",64.97,64.98,64.06,64.25,"1,413,200",54.45
"Aug 15, 2008",63.22,64.72,62.38,64.57,"1,183,100",54.73
"Aug 14, 2008",63.07,63.42,62.32,63.18,"1,436,600",53.55
"Aug 13, 2008",63.90,64.23,61.92,63.43,"1,500,200",53.76
"Aug 12, 2008",64.02,64.86,63.91,64.25,"996,000",54.45
"Aug 11, 2008",63.11,64.68,62.63,64.37,"1,658,600",54.56
"Aug 8, 2008",61.49,63.39,60.76,63.34,"1,546,000",53.68
"Aug 7, 2008",61.26,62.87,60.78,61.29,"2,070,700",51.95
"Aug 6, 2008",60.45,62.14,60.45,61.96,"1,937,600",52.07
"Aug 5, 2008",58.71,60.50,58.64,60.50,"1,282,500",50.85
"Aug 4, 2008",59.06,59.10,58.12,58.31,"970,600",49.01
"Aug 1, 2008",60.74,61.05,59.12,59.14,"754,700",49.70
"Jul 31, 2008",61.27,61.90,60.43,60.64,"1,136,900",50.96
"Jul 30, 2008",60.72,61.67,60.41,61.67,"1,451,600",51.83
"Jul 29, 2008",59.95,60.72,58.67,60.26,"1,694,400",50.64
"Jul 28, 2008",60.41,60.80,59.34,59.59,"1,453,200",50.08
"Jul 25, 2008",61.33,61.72,60.35,60.48,"1,778,700",50.83
"Jul 24, 2008",62.07,62.31,60.92,61.00,"1,783,100",51.27
"Jul 23, 2008",61.81,62.66,61.19,62.18,"2,609,000",52.26
"Jul 22, 2008",60.62,61.75,60.37,61.61,"2,339,200",51.78
"Jul 21, 2008",61.15,61.33,60.06,60.97,"1,780,300",51.24
"Jul 18, 2008",60.97,62.41,60.15,60.78,"2,093,500",51.08
"Jul 17, 2008",58.50,61.55,58.50,61.04,"3,302,900",51.30
"Jul 16, 2008",56.05,57.08,54.90,57.08,"2,654,300",47.97
"Jul 15, 2008",54.62,56.38,54.34,55.79,"2,120,000",46.89
"Jul 14, 2008",56.58,56.58,54.89,55.14,"1,672,100",46.34
"Jul 11, 2008",54.83,55.85,54.04,55.42,"1,964,400",46.58
"Jul 10, 2008",55.29,56.57,54.70,55.43,"2,361,900",46.58
"Jul 9, 2008",56.48,56.85,54.66,54.67,"1,816,400",45.95
"Jul 8, 2008",55.14,56.41,55.00,56.30,"1,903,900",47.32
"Jul 7, 2008",55.90,56.55,55.16,55.65,"1,286,800",46.77
"Jul 3, 2008",56.00,56.37,54.65,55.63,"1,144,100",46.75
"Jul 2, 2008",57.88,57.97,55.56,55.65,"1,903,900",46.77
"Jul 1, 2008",56.83,57.68,56.40,57.51,"1,819,700",48.33
"Jun 30, 2008",57.11,57.89,56.39,57.37,"2,082,700",48.22
"Jun 27, 2008",57.15,57.64,56.81,57.15,"1,154,900",48.03
"Jun 26, 2008",58.53,58.63,57.15,57.20,"1,334,500",48.07
"Jun 25, 2008",59.16,59.63,58.88,59.08,"1,631,900",49.65
"Jun 24, 2008",60.45,60.50,58.91,59.09,"1,353,900",49.66
"Jun 23, 2008",60.35,60.77,59.71,60.60,"891,000",50.93
"Jun 20, 2008",60.50,60.96,59.48,59.97,"1,405,300",50.40
"Jun 19, 2008",60.65,61.41,60.16,60.97,"1,018,100",51.24
"Jun 18, 2008",61.32,61.32,60.26,60.68,"933,900",51.00
"Jun 17, 2008",62.09,62.44,61.46,61.59,"870,100",51.76
"Jun 16, 2008",61.55,62.19,61.26,61.86,"1,158,300",51.99
"Jun 13, 2008",60.00,62.05,59.90,61.97,"1,953,400",52.08
"Jun 12, 2008",60.00,60.43,59.31,59.76,"1,789,000",50.22
"Jun 11, 2008",60.16,60.73,59.85,60.00,"1,163,300",50.43
"Jun 10, 2008",60.08,60.55,59.48,60.35,"1,275,400",50.72
"Jun 9, 2008",61.55,61.64,60.16,60.88,"1,263,500",51.16
"Jun 6, 2008",62.70,62.70,61.18,61.23,"1,446,100",51.46
"Jun 5, 2008",62.47,63.11,61.97,63.11,"849,300",53.04
"Jun 4, 2008",61.43,62.72,61.28,61.86,"1,253,400",51.99
"Jun 3, 2008",60.85,62.18,60.85,61.40,"1,768,800",51.60
"Jun 2, 2008",62.80,62.93,62.09,62.48,"878,800",52.51
"May 30, 2008",63.75,64.13,62.73,63.03,"1,084,300",52.97
"May 29, 2008",62.71,63.86,62.42,63.41,"985,900",53.29
"May 28, 2008",62.58,63.36,62.02,63.36,"1,034,000",53.25
"May 27, 2008",62.49,62.68,61.67,62.22,"1,165,400",52.29
"May 23, 2008",63.68,63.70,62.28,62.47,"1,335,700",52.50
"May 22, 2008",63.75,64.29,63.21,63.67,"913,800",53.51
"May 21, 2008",64.67,64.84,63.14,63.41,"1,487,000",53.29
"May 20, 2008",64.01,64.93,64.01,64.59,"889,000",54.28
"May 19, 2008",66.19,66.19,64.43,64.68,"1,053,600",54.36
"May 16, 2008",65.42,66.46,65.42,66.24,"1,213,000",55.67
"May 15, 2008",65.11,65.80,64.32,65.62,"1,231,900",55.15
"May 14, 2008",63.89,65.39,63.55,64.95,"1,242,500",54.59
"May 13, 2008",62.75,63.61,62.75,63.61,"807,900",53.46
"May 12, 2008",62.47,63.03,61.30,63.00,"936,300",52.95
"May 9, 2008",62.15,62.78,61.73,62.08,"669,200",52.17
"May 8, 2008",62.76,63.25,62.28,63.11,"681,500",53.04
"May 7, 2008",63.35,64.07,62.71,62.76,"1,306,800",52.31
"May 6, 2008",63.21,63.60,62.29,63.33,"1,406,000",52.78
"May 5, 2008",62.76,63.35,62.07,63.24,"1,172,800",52.71
"May 2, 2008",62.70,63.58,62.32,62.85,"1,913,600",52.38
"May 1, 2008",61.26,62.74,60.43,62.41,"1,938,500",52.02
"Apr 30, 2008",62.18,63.08,61.04,61.37,"1,918,900",51.15
"Apr 29, 2008",63.21,63.63,62.13,62.33,"1,236,200",51.95
"Apr 28, 2008",65.14,66.53,62.97,63.42,"1,166,400",52.86
"Apr 25, 2008",64.08,64.93,63.58,64.84,"859,900",54.04
"Apr 24, 2008",63.24,64.06,62.50,63.67,"1,140,100",53.07
"Apr 23, 2008",64.98,65.46,62.92,63.27,"1,130,400",52.73
"Apr 22, 2008",64.87,65.30,63.74,64.76,"1,498,500",53.97
"Apr 21, 2008",65.72,66.02,64.73,65.36,"1,423,200",54.47
"Apr 18, 2008",66.17,66.51,64.87,66.41,"1,343,100",55.35
"Apr 17, 2008",65.46,66.02,64.11,64.75,"1,423,500",53.97
"Apr 16, 2008",63.44,65.92,63.29,65.92,"1,984,400",54.94
"Apr 15, 2008",62.93,63.50,62.52,63.03,"883,000",52.53
"Apr 14, 2008",63.71,63.71,62.64,62.71,"996,800",52.27
"Apr 11, 2008",63.09,64.07,62.82,63.18,"993,000",52.66
"Apr 10, 2008",63.15,64.12,62.72,63.70,"1,138,500",53.09
"Apr 9, 2008",64.13,64.39,63.04,63.27,"757,500",52.73
"Apr 8, 2008",63.60,63.95,63.11,63.87,"1,232,900",53.23
"Apr 7, 2008",65.42,65.42,63.58,63.79,"1,458,000",53.17
"Apr 4, 2008",63.63,65.21,63.28,64.81,"1,516,000",54.02
"Apr 3, 2008",62.78,64.53,62.34,63.46,"1,666,500",52.89
"Apr 2, 2008",62.06,64.20,62.06,63.13,"2,704,900",52.62
"Apr 1, 2008",60.59,62.54,60.16,62.54,"1,639,600",52.12
"Mar 31, 2008",58.85,60.72,58.85,60.51,"1,770,600",50.43
"Mar 28, 2008",59.94,59.94,58.75,59.28,"1,181,700",49.41
"Mar 27, 2008",60.04,60.50,58.87,59.58,"1,172,700",49.66
"Mar 26, 2008",60.78,61.09,59.49,59.78,"1,197,900",49.82
"Mar 25, 2008",60.99,61.43,60.29,61.06,"805,200",50.89
"Mar 24, 2008",58.90,61.78,58.60,60.55,"1,377,800",50.47
"Mar 20, 2008",58.47,59.49,58.12,59.04,"1,581,600",49.21
"Mar 19, 2008",60.68,61.18,58.40,58.40,"1,505,600",48.67
"Mar 18, 2008",59.70,60.89,58.42,59.94,"1,843,000",49.96
"Mar 17, 2008",57.71,59.31,57.15,58.00,"2,551,400",48.34
"Mar 14, 2008",60.77,61.01,58.05,59.01,"2,485,500",49.18
"Mar 13, 2008",59.11,60.89,58.30,60.57,"1,973,700",50.48
"Mar 12, 2008",59.50,60.81,59.26,59.82,"1,279,200",49.86
"Mar 11, 2008",59.29,59.73,57.77,59.73,"2,345,300",49.78
"Mar 10, 2008",58.74,58.74,57.25,57.50,"2,867,000",47.92
"Mar 7, 2008",60.05,60.07,58.23,58.57,"2,775,200",48.82
"Mar 6, 2008",61.05,61.75,60.59,60.65,"1,894,100",50.55
"Mar 5, 2008",61.51,62.23,61.21,61.74,"2,472,500",51.46
"Mar 4, 2008",62.00,62.35,60.48,61.28,"2,089,900",51.07
"Mar 3, 2008",62.03,62.69,61.69,62.67,"1,773,100",52.23
"Feb 29, 2008",63.53,63.57,61.60,61.98,"1,669,600",51.66
"Feb 28, 2008",64.41,64.87,63.10,63.88,"2,521,100",53.24
"Feb 27, 2008",65.49,66.10,64.94,65.18,"1,652,000",54.32
"Feb 26, 2008",65.77,66.42,65.13,65.76,"1,388,800",54.81
"Feb 25, 2008",64.59,66.00,64.16,66.00,"1,286,100",55.01
"Feb 22, 2008",64.39,64.44,62.91,64.38,"1,122,200",53.66
"Feb 21, 2008",64.08,64.45,63.55,64.00,"1,750,600",53.34
"Feb 20, 2008",62.49,64.09,62.49,63.69,"1,671,000",53.08
"Feb 19, 2008",64.71,65.57,64.27,65.24,"1,297,000",53.94
"Feb 15, 2008",64.02,64.26,62.87,63.85,"1,980,500",52.79
"Feb 14, 2008",65.47,65.51,64.00,64.19,"1,405,300",53.07
"Feb 13, 2008",65.99,66.41,65.02,65.57,"1,384,000",54.21
"Feb 12, 2008",64.62,65.84,64.32,65.07,"1,171,800",53.80
"Feb 11, 2008",64.00,65.11,63.89,64.80,"834,100",53.58
"Feb 8, 2008",63.93,64.73,63.42,64.37,"992,700",53.22
"Feb 7, 2008",63.96,65.03,63.71,64.34,"1,192,200",53.20
"Feb 6, 2008",65.08,65.99,64.37,64.65,"945,300",53.45
"Feb 5, 2008",65.16,65.96,64.34,64.34,"908,700",53.20
"Feb 4, 2008",67.75,67.92,66.26,66.42,"1,388,700",54.92
"Feb 1, 2008",65.98,67.28,65.74,67.19,"1,162,700",55.55
"Jan 31, 2008",63.60,66.67,63.03,65.37,"1,781,000",54.05
"Jan 30, 2008",64.50,65.91,63.62,63.89,"1,544,800",52.83
"Jan 29, 2008",65.03,65.67,64.31,64.54,"1,465,000",53.36
"Jan 28, 2008",63.32,64.56,62.47,64.50,"1,498,700",53.33
"Jan 25, 2008",64.79,65.75,62.70,63.00,"1,829,700",52.09
"Jan 24, 2008",63.76,65.24,63.13,63.78,"1,968,300",52.73
"Jan 23, 2008",59.83,64.00,58.59,63.93,"2,467,200",52.86
"Jan 22, 2008",59.11,62.51,59.10,61.51,"2,858,400",50.86
"Jan 18, 2008",62.47,63.88,60.71,62.06,"2,565,000",51.31
"Jan 17, 2008",63.56,66.10,62.39,62.64,"3,188,600",51.79
"Jan 16, 2008",62.51,63.01,61.24,61.57,"2,438,800",50.91
"Jan 15, 2008",63.37,64.15,62.25,62.25,"1,577,800",51.47
"Jan 14, 2008",63.34,64.88,63.34,64.58,"1,293,700",53.40
"Jan 11, 2008",64.64,64.64,63.12,63.20,"2,081,000",52.25
"Jan 10, 2008",64.94,65.66,63.49,65.11,"1,860,400",53.83
"Jan 9, 2008",63.88,65.47,63.41,65.03,"2,529,900",53.77
"Jan 8, 2008",67.46,68.00,65.15,65.22,"2,003,700",53.92
"Jan 7, 2008",67.46,67.72,65.70,67.00,"1,764,400",55.40
"Jan 4, 2008",67.38,67.50,66.48,66.66,"1,251,900",55.12
"Jan 3, 2008",68.91,69.00,67.51,67.83,"1,245,100",56.08
"Jan 2, 2008",71.00,71.00,68.11,68.60,"1,203,000",56.72
"Dec 31, 2007",70.38,70.78,70.09,70.23,"687,200",58.07
"Dec 28, 2007",71.33,71.53,70.07,70.43,"753,500",58.23
"Dec 27, 2007",68.75,70.99,68.75,70.60,"1,306,700",58.37
"Dec 26, 2007",71.57,71.95,70.89,71.86,"418,700",59.42
"Dec 24, 2007",71.73,72.21,71.51,71.80,"196,200",59.37
"Dec 21, 2007",70.49,71.82,69.64,71.72,"1,433,500",59.30
"Dec 20, 2007",69.10,69.97,68.60,69.81,"887,400",57.72
"Dec 19, 2007",69.95,69.95,68.32,68.69,"906,800",56.79
"Dec 18, 2007",68.80,69.67,67.97,69.45,"1,331,300",57.42
"Dec 17, 2007",69.46,69.49,67.91,68.00,"1,137,700",56.22
"Dec 14, 2007",69.39,70.44,69.39,69.40,"983,500",57.38
"Dec 13, 2007",69.64,70.62,69.16,70.50,"1,121,400",58.29
"Dec 12, 2007",69.94,70.51,68.71,69.61,"854,700",57.55
"Dec 11, 2007",70.92,70.96,68.44,68.54,"934,100",56.67
"Dec 10, 2007",70.81,71.07,70.21,70.85,"508,000",58.58
"Dec 7, 2007",69.55,70.54,69.13,70.28,"668,700",58.11
"Dec 6, 2007",68.75,69.29,68.38,69.00,"840,300",57.05
"Dec 5, 2007",68.84,68.84,68.30,68.77,"1,018,400",56.86
"Dec 4, 2007",68.16,68.65,67.70,68.07,"710,600",56.28
"Dec 3, 2007",68.16,69.05,68.09,68.43,"1,112,900",56.58
"Nov 30, 2007",69.09,69.09,67.65,68.64,"1,655,900",56.75
"Nov 29, 2007",68.28,70.32,67.81,68.41,"1,127,300",56.56
"Nov 28, 2007",66.07,68.65,66.07,68.64,"2,073,500",56.75
"Nov 27, 2007",66.21,66.82,64.93,66.00,"1,675,300",54.57
"Nov 26, 2007",66.45,67.95,65.73,66.00,"1,089,900",54.57
"Nov 23, 2007",65.97,66.66,65.45,66.50,"343,400",54.98
"Nov 21, 2007",65.37,66.29,65.22,65.41,"1,155,100",54.08
"Nov 20, 2007",65.40,66.87,65.20,66.25,"1,164,700",54.78
"Nov 19, 2007",66.63,66.93,65.34,65.43,"1,198,200",54.10
"Nov 16, 2007",67.68,68.00,66.03,66.79,"1,488,400",55.22
"Nov 15, 2007",67.80,68.90,66.85,67.36,"1,316,700",55.69
"Nov 14, 2007",69.15,69.21,68.07,68.08,"1,266,200",56.29
"Nov 13, 2007",69.27,69.50,68.20,68.60,"1,313,500",56.72
"Nov 12, 2007",69.01,69.90,68.47,68.49,"1,033,300",56.63
"Nov 9, 2007",70.63,70.90,69.21,69.27,"1,290,200",57.27
"Nov 8, 2007",70.54,71.91,69.83,71.63,"1,247,300",59.22
"Nov 7, 2007",72.80,72.88,70.48,70.48,"1,016,500",58.27
"Nov 6, 2007",73.00,73.88,71.98,73.73,"744,900",60.53
"Nov 5, 2007",72.99,73.22,71.89,72.47,"860,300",59.50
"Nov 2, 2007",73.93,73.93,72.38,73.28,"740,100",60.16
"Nov 1, 2007",74.50,74.50,72.80,72.96,"961,900",59.90
"Oct 31, 2007",73.25,74.75,72.79,74.74,"940,900",61.36
"Oct 30, 2007",73.87,74.02,72.66,72.84,"938,000",59.80
"Oct 29, 2007",74.00,74.27,73.60,74.08,"949,600",60.82
"Oct 26, 2007",74.14,74.21,73.32,73.54,"724,900",60.38
"Oct 25, 2007",74.64,75.11,73.16,73.44,"1,366,500",60.29
"Oct 24, 2007",74.49,74.77,73.79,74.51,"1,130,600",61.17
"Oct 23, 2007",75.10,75.56,74.01,74.78,"910,000",61.39
"Oct 22, 2007",73.44,74.81,73.26,74.47,"1,278,800",61.14
"Oct 19, 2007",75.11,75.58,74.15,74.15,"1,961,300",60.88
"Oct 18, 2007",76.00,77.50,75.18,75.37,"1,818,400",61.88
"Oct 17, 2007",79.00,79.50,77.03,77.70,"790,800",63.79
"Oct 16, 2007",77.89,79.00,77.51,78.57,"889,000",64.50
"Oct 15, 2007",79.26,79.95,77.37,77.98,"671,000",64.02
"Oct 12, 2007",78.50,79.12,78.02,79.06,"513,200",64.91
"Oct 11, 2007",78.64,79.76,77.81,78.14,"686,500",64.15
"Oct 10, 2007",78.16,78.87,77.57,78.26,"591,600",64.25
"Oct 9, 2007",77.51,78.46,77.25,78.18,"576,500",64.18
"Oct 8, 2007",78.10,78.50,77.01,77.45,"576,100",63.59
"Oct 5, 2007",77.70,78.84,77.24,78.53,"752,200",64.47
"Oct 4, 2007",76.41,77.42,75.95,76.87,"593,200",63.11
"Oct 3, 2007",75.80,76.74,75.71,76.28,"771,200",62.62
"Oct 2, 2007",76.48,76.60,75.50,76.25,"842,800",62.60
"Oct 1, 2007",75.54,77.29,75.54,76.91,"687,200",63.14
"Sep 28, 2007",75.81,76.16,75.27,75.55,"1,014,200",62.03
"Sep 27, 2007",75.80,76.79,75.17,76.16,"846,000",62.53
"Sep 26, 2007",75.47,76.21,75.03,75.60,"889,600",62.07
"Sep 25, 2007",74.55,75.29,74.00,75.17,"672,600",61.71
"Sep 24, 2007",75.30,76.03,74.59,74.59,"1,188,700",61.24
"Sep 21, 2007",75.69,76.29,75.00,75.00,"1,515,700",61.57
"Sep 20, 2007",77.21,77.30,75.09,75.16,"1,021,600",61.71
"Sep 19, 2007",76.49,78.00,76.25,77.38,"1,418,300",63.53
"Sep 18, 2007",74.10,75.75,73.30,75.70,"1,019,100",62.15
"Sep 17, 2007",73.70,74.38,73.47,73.67,"623,200",60.48
"Sep 14, 2007",74.82,75.02,73.41,73.84,"963,500",60.62
"Sep 13, 2007",75.36,75.66,74.63,75.01,"980,700",61.58
"Sep 12, 2007",72.45,74.95,72.41,74.50,"1,550,100",61.16
"Sep 11, 2007",71.85,72.62,71.62,72.55,"722,700",59.56
"Sep 10, 2007",71.36,71.91,70.25,71.37,"983,400",58.59
"Sep 7, 2007",72.95,72.95,70.87,71.10,"731,300",58.37
"Sep 6, 2007",73.35,74.18,72.72,73.81,"840,700",60.60
"Sep 5, 2007",72.89,73.22,72.01,72.97,"806,200",59.91
"Sep 4, 2007",73.65,74.00,72.76,73.63,"603,900",60.45
"Aug 31, 2007",74.40,74.75,73.01,73.35,"659,900",60.22
"Aug 30, 2007",72.60,73.89,72.57,73.50,"838,100",60.34
"Aug 29, 2007",71.94,73.48,71.71,73.39,"931,900",60.25
"Aug 28, 2007",72.95,73.22,71.21,71.28,"632,900",58.52
"Aug 27, 2007",73.72,73.97,73.13,73.25,"517,600",60.14
"Aug 24, 2007",72.50,74.05,72.39,74.00,"881,700",60.75
"Aug 23, 2007",73.35,73.65,71.87,72.78,"1,019,100",59.75
"Aug 22, 2007",73.38,74.25,72.94,73.17,"1,075,000",60.07
"Aug 21, 2007",73.85,73.93,72.51,72.87,"757,000",59.83
"Aug 20, 2007",72.60,73.50,72.30,73.38,"917,700",60.24
"Aug 17, 2007",73.85,74.17,71.31,72.37,"1,817,600",59.41
"Aug 16, 2007",70.23,72.00,67.81,71.35,"2,315,300",58.58
"Aug 15, 2007",72.00,72.74,70.44,70.57,"1,140,800",57.94
"Aug 14, 2007",75.65,75.85,72.28,72.28,"898,100",59.34
"Aug 13, 2007",75.00,75.61,74.05,75.27,"1,236,300",61.80
"Aug 10, 2007",71.70,75.08,71.03,74.45,"1,416,500",61.12
"Aug 9, 2007",74.73,75.24,72.01,72.19,"1,520,700",59.27
"Aug 8, 2007",77.59,77.90,75.93,76.50,"2,055,700",62.81
"Aug 7, 2007",77.26,78.37,76.31,77.66,"1,221,000",63.33
"Aug 6, 2007",76.88,78.06,75.27,78.06,"1,659,800",63.66
"Aug 3, 2007",78.79,79.15,76.28,76.28,"1,256,500",62.21
"Aug 2, 2007",79.03,79.71,78.10,78.56,"1,033,900",64.06
"Aug 1, 2007",76.45,79.10,75.62,78.94,"2,392,500",64.37
"Jul 31, 2007",77.64,78.31,76.19,76.27,"1,363,200",62.20
"Jul 30, 2007",76.00,77.61,75.70,77.34,"1,152,000",63.07
"Jul 27, 2007",77.65,78.17,75.54,76.05,"1,697,900",62.02
"Jul 26, 2007",79.47,79.75,76.60,77.70,"2,028,900",63.36
"Jul 25, 2007",81.65,81.70,79.42,80.34,"1,672,500",65.52
"Jul 24, 2007",81.17,82.25,80.63,81.20,"1,774,400",66.22
"Jul 23, 2007",80.77,82.42,80.30,82.20,"1,371,100",67.03
"Jul 20, 2007",81.25,81.46,79.94,80.62,"2,625,200",65.74
"Jul 19, 2007",77.65,81.42,77.63,80.50,"2,537,400",65.65
"Jul 18, 2007",79.62,80.59,78.70,80.42,"1,300,100",65.58
"Jul 17, 2007",79.27,80.61,79.15,80.59,"1,348,500",65.72
"Jul 16, 2007",78.50,79.49,78.27,78.71,"704,400",64.19
"Jul 13, 2007",77.94,79.00,77.81,78.81,"521,400",64.27
"Jul 12, 2007",77.13,78.34,76.95,78.34,"939,500",63.89
"Jul 11, 2007",76.71,77.39,76.61,76.95,"750,200",62.75
"Jul 10, 2007",77.35,77.69,76.70,76.71,"925,000",62.56
"Jul 9, 2007",77.24,77.89,77.03,77.88,"820,000",63.51
"Jul 6, 2007",77.00,77.26,76.81,77.05,"554,400",62.83
"Jul 5, 2007",76.53,77.77,76.53,77.43,"775,000",63.14
"Jul 3, 2007",76.85,76.99,76.51,76.53,"252,200",62.41
"Jul 2, 2007",76.61,77.15,76.35,76.95,"698,000",62.75
"Jun 29, 2007",74.84,76.99,74.77,76.11,"1,505,900",62.07
"Jun 28, 2007",74.93,75.00,74.31,74.54,"1,038,100",60.79
"Jun 27, 2007",73.28,75.39,73.20,75.31,"991,900",61.41
"Jun 26, 2007",74.35,74.88,73.67,73.89,"979,300",60.26
"Jun 25, 2007",73.67,74.46,73.40,73.82,"832,700",60.20
"Jun 22, 2007",74.18,74.78,73.43,73.58,"1,014,100",60.00
"Jun 21, 2007",74.19,74.88,73.54,74.61,"487,400",60.84
"Jun 20, 2007",75.01,75.55,74.21,74.21,"705,400",60.52
"Jun 19, 2007",74.35,74.87,74.02,74.81,"576,500",61.01
"Jun 18, 2007",75.03,75.59,74.70,74.81,"438,600",61.01
"Jun 15, 2007",75.50,75.83,74.83,74.98,"798,400",61.15
"Jun 14, 2007",74.08,74.90,74.08,74.52,"464,000",60.77
"Jun 13, 2007",73.53,74.23,73.10,74.23,"514,200",60.53
"Jun 12, 2007",74.21,74.26,72.94,72.95,"847,700",59.49
"Jun 11, 2007",73.95,74.41,73.40,74.21,"688,500",60.52
"Jun 8, 2007",73.80,74.32,73.16,74.22,"615,100",60.53
"Jun 7, 2007",75.30,75.77,73.79,73.79,"1,110,400",60.17
"Jun 6, 2007",76.36,76.36,75.50,75.77,"1,140,400",61.79
"Jun 5, 2007",75.85,76.49,75.76,76.35,"727,300",62.26
"Jun 4, 2007",75.98,76.41,75.53,76.21,"1,050,400",62.15
"Jun 1, 2007",76.19,77.00,75.94,76.37,"844,200",62.28
"May 31, 2007",76.91,77.08,76.16,76.19,"947,600",62.13
"May 30, 2007",76.10,77.04,75.50,77.01,"1,067,100",62.80
"May 29, 2007",77.00,77.20,76.10,76.40,"722,700",62.30
"May 25, 2007",76.66,77.23,76.56,77.11,"692,400",62.88
"May 24, 2007",76.87,77.23,76.27,76.56,"1,437,500",62.43
"May 23, 2007",77.88,78.60,77.28,77.36,"758,300",63.09
"May 22, 2007",77.63,78.08,77.37,77.88,"841,400",63.51
"May 21, 2007",77.08,78.32,76.59,77.97,"1,887,500",63.58
"May 18, 2007",76.06,78.80,75.60,77.81,"2,331,300",63.45
"May 17, 2007",74.91,75.70,74.90,75.50,"748,700",61.57
"May 16, 2007",74.80,75.12,74.29,75.01,"702,000",61.17
"May 15, 2007",74.78,75.59,74.48,74.68,"644,500",60.90
"May 14, 2007",74.48,75.18,74.31,74.49,"627,700",60.75
"May 11, 2007",74.53,74.86,74.10,74.64,"812,000",60.87
"May 10, 2007",75.07,75.35,74.10,74.34,"820,000",60.62
"May 9, 2007",74.75,75.62,74.69,75.62,"704,300",61.67
"May 8, 2007",75.16,75.18,74.43,74.85,"663,100",61.04
"May 7, 2007",75.00,75.87,74.85,75.80,"650,100",61.41
"May 4, 2007",74.99,75.11,74.25,74.80,"539,400",60.60
"May 3, 2007",73.95,75.04,73.95,75.02,"964,500",60.77
"May 2, 2007",73.16,74.45,73.15,74.02,"680,800",59.96
"May 1, 2007",73.61,73.70,72.87,73.26,"910,100",59.35
"Apr 30, 2007",74.72,74.78,73.58,73.59,"1,229,600",59.62
"Apr 27, 2007",74.41,74.77,73.59,74.72,"728,200",60.53
"Apr 26, 2007",74.61,74.93,74.10,74.40,"733,400",60.27
"Apr 25, 2007",74.30,75.07,74.30,74.98,"819,200",60.74
"Apr 24, 2007",74.82,75.10,73.84,74.23,"996,600",60.13
"Apr 23, 2007",74.91,75.45,74.76,75.02,"1,120,000",60.77
"Apr 20, 2007",75.57,75.57,74.72,75.25,"1,793,800",60.96
"Apr 19, 2007",71.52,75.89,70.92,75.50,"2,875,200",61.16
"Apr 18, 2007",70.78,71.12,70.28,70.92,"1,307,300",57.45
"Apr 17, 2007",71.99,72.00,70.75,70.78,"973,600",57.34
"Apr 16, 2007",71.28,72.19,71.15,72.11,"674,700",58.42
"Apr 13, 2007",71.35,71.35,70.73,71.00,"394,000",57.52
"Apr 12, 2007",70.62,71.36,70.19,71.36,"613,100",57.81
"Apr 11, 2007",71.10,71.25,70.33,70.56,"873,000",57.16
"Apr 10, 2007",71.61,71.66,70.60,70.89,"856,100",57.43
"Apr 9, 2007",71.77,72.80,71.47,71.81,"684,000",58.17
"Apr 5, 2007",71.03,71.25,70.82,71.06,"629,500",57.57
"Apr 4, 2007",71.20,71.50,70.94,71.32,"524,700",57.78
"Apr 3, 2007",70.84,71.46,70.42,71.20,"631,800",57.68
"Apr 2, 2007",70.31,70.72,69.94,70.59,"697,900",57.19
"Mar 30, 2007",70.54,71.25,69.72,70.31,"1,093,600",56.96
"Mar 29, 2007",71.23,71.41,69.96,70.61,"921,500",57.20
"Mar 28, 2007",71.48,71.48,70.43,70.69,"698,200",57.27
"Mar 27, 2007",71.75,72.00,71.30,71.58,"660,300",57.99
"Mar 26, 2007",72.23,72.29,71.03,72.29,"723,600",58.56
"Mar 23, 2007",71.62,72.40,71.51,72.28,"786,700",58.55
"Mar 22, 2007",72.15,72.21,71.71,71.88,"906,000",58.23
"Mar 21, 2007",70.87,72.26,70.68,72.14,"976,700",58.44
"Mar 20, 2007",70.50,71.46,70.50,71.22,"1,834,600",57.70
"Mar 19, 2007",69.04,70.39,68.88,70.31,"1,682,300",56.96
"Mar 16, 2007",68.96,69.50,68.34,69.04,"1,088,300",55.93
"Mar 15, 2007",68.31,69.33,68.26,68.98,"732,300",55.88
"Mar 14, 2007",67.96,68.44,66.89,68.26,"1,139,500",55.30
"Mar 13, 2007",68.80,69.59,67.63,67.80,"2,356,500",54.93
"Mar 12, 2007",67.80,69.06,67.80,68.71,"1,410,300",55.66
"Mar 9, 2007",66.90,68.11,66.85,67.97,"1,161,700",55.06
"Mar 8, 2007",65.75,66.81,65.66,66.50,"701,500",53.87
"Mar 7, 2007",65.64,65.99,65.35,65.52,"582,700",53.08
"Mar 6, 2007",65.43,66.23,65.26,65.90,"856,600",53.39
"Mar 5, 2007",65.49,65.95,64.88,65.09,"894,800",52.73
"Mar 2, 2007",65.77,66.10,65.20,65.49,"1,309,600",53.05
"Mar 1, 2007",65.69,66.46,64.70,65.99,"867,100",53.46
"Feb 28, 2007",66.09,67.13,66.00,66.25,"1,228,200",53.67
"Feb 27, 2007",67.57,67.57,64.84,66.09,"1,351,600",53.54
"Feb 26, 2007",68.20,68.46,67.66,68.00,"892,100",55.09
"Feb 23, 2007",67.44,67.85,66.91,67.74,"788,900",54.88
"Feb 22, 2007",68.50,68.53,67.33,67.44,"688,400",54.63
"Feb 21, 2007",68.08,68.35,67.69,68.27,"699,300",55.31
"Feb 20, 2007",67.67,68.45,66.96,68.20,"846,900",55.25
"Feb 16, 2007",68.79,69.00,68.08,68.21,"818,200",55.26
"Feb 15, 2007",68.40,68.80,68.40,68.68,"436,200",55.64
"Feb 14, 2007",68.46,68.80,68.07,68.61,"606,200",55.58
"Feb 13, 2007",68.37,69.09,68.30,68.81,"850,100",55.34
"Feb 12, 2007",67.99,68.81,67.90,67.95,"814,900",54.65
"Feb 9, 2007",67.85,68.42,67.82,67.90,"739,300",54.61
"Feb 8, 2007",68.07,68.31,67.56,67.60,"531,600",54.37
"Feb 7, 2007",68.00,68.46,68.00,68.34,"784,100",54.96
"Feb 6, 2007",67.07,68.02,67.07,67.92,"818,000",54.62
"Feb 5, 2007",67.38,67.50,66.79,67.07,"575,400",53.94
"Feb 2, 2007",67.85,68.03,67.21,67.71,"808,200",54.45
"Feb 1, 2007",66.22,68.18,66.21,67.82,"1,658,000",54.54
"Jan 31, 2007",65.67,66.51,65.67,66.29,"901,300",53.31
"Jan 30, 2007",65.62,65.67,65.03,65.67,"499,600",52.81
"Jan 29, 2007",65.21,65.70,64.97,65.37,"593,900",52.57
"Jan 26, 2007",65.47,65.48,64.55,65.13,"960,800",52.38
"Jan 25, 2007",66.45,66.48,65.51,65.70,"728,000",52.84
"Jan 24, 2007",66.03,66.49,65.76,66.24,"797,700",53.27
"Jan 23, 2007",65.48,66.10,65.35,66.04,"659,600",53.11
"Jan 22, 2007",65.89,66.08,65.24,65.47,"668,400",52.65
"Jan 19, 2007",66.51,66.70,65.59,66.15,"1,398,700",53.20
"Jan 18, 2007",67.65,67.69,65.80,66.01,"1,887,300",53.09
"Jan 17, 2007",67.30,67.88,66.87,67.83,"814,800",54.55
"Jan 16, 2007",67.07,67.56,67.07,67.29,"572,200",54.12
"Jan 12, 2007",66.25,67.33,66.20,67.07,"761,100",53.94
"Jan 11, 2007",65.29,66.57,65.29,66.43,"920,000",53.42
"Jan 10, 2007",65.21,65.43,64.62,65.29,"586,700",52.51
"Jan 9, 2007",64.78,65.48,64.45,65.20,"1,109,100",52.44
"Jan 8, 2007",64.65,64.65,64.11,64.30,"760,100",51.71
"Jan 5, 2007",64.24,64.78,64.03,64.73,"935,100",52.06
"Jan 4, 2007",64.65,64.71,64.01,64.52,"721,500",51.89
"Jan 3, 2007",64.20,65.06,64.05,64.54,"801,100",51.90
"Dec 29, 2006",64.74,64.80,64.14,64.21,"345,400",51.64
"Dec 28, 2006",64.80,65.20,64.73,64.74,"359,000",52.07
"Dec 27, 2006",64.95,65.09,64.67,65.03,"567,900",52.30
"Dec 26, 2006",64.26,65.00,64.09,64.94,"374,400",52.23
"Dec 22, 2006",64.82,64.82,63.02,64.25,"1,081,500",51.67
"Dec 21, 2006",65.70,65.70,64.79,65.03,"466,100",52.30
"Dec 20, 2006",66.14,66.14,65.48,65.48,"610,500",52.66
"Dec 19, 2006",65.75,66.20,65.47,66.18,"652,400",53.22
"Dec 18, 2006",66.30,66.30,65.69,65.74,"496,700",52.87
"Dec 15, 2006",65.75,66.11,65.56,66.08,"856,500",53.14
"Dec 14, 2006",64.92,65.78,64.80,65.52,"1,337,500",52.69
"Dec 13, 2006",65.23,65.35,64.70,64.78,"775,600",52.10
"Dec 12, 2006",65.34,65.35,64.61,65.03,"1,195,500",52.30
"Dec 11, 2006",65.78,65.83,65.25,65.38,"485,000",52.58
"Dec 8, 2006",65.50,66.05,65.41,65.77,"502,700",52.89
"Dec 7, 2006",65.98,66.25,65.70,65.70,"449,900",52.84
"Dec 6, 2006",66.11,66.50,65.82,65.82,"822,900",52.93
"Dec 5, 2006",65.55,66.69,65.55,66.36,"1,255,100",53.37
"Dec 4, 2006",64.40,65.52,64.40,65.39,"995,000",52.59
"Dec 1, 2006",64.69,64.73,63.94,64.39,"1,020,100",51.78
"Nov 30, 2006",64.30,64.66,64.10,64.30,"917,600",51.71
"Nov 29, 2006",64.40,64.44,64.07,64.39,"1,840,600",51.78
"Nov 28, 2006",64.08,64.44,63.79,64.15,"1,358,300",51.59
"Nov 27, 2006",64.70,64.77,63.77,64.25,"1,070,000",51.67
"Nov 24, 2006",64.75,65.07,64.75,64.95,"212,400",52.23
"Nov 22, 2006",64.82,65.51,64.82,65.04,"771,500",52.31
"Nov 21, 2006",64.67,65.20,64.27,65.06,"1,437,200",52.32
"Nov 20, 2006",64.88,65.55,64.53,64.79,"1,979,700",52.11
"Nov 17, 2006",67.75,67.80,64.91,65.63,"3,310,700",52.78
"Nov 16, 2006",68.97,69.32,68.45,69.15,"828,700",55.61
"Nov 15, 2006",68.38,68.86,68.13,68.63,"533,300",55.19
"Nov 14, 2006",68.20,68.43,67.40,68.21,"587,800",54.86
"Nov 13, 2006",67.41,68.31,67.30,68.18,"727,300",54.83
"Nov 10, 2006",67.25,67.59,66.89,67.29,"572,500",54.12
"Nov 9, 2006",67.27,67.65,66.77,66.82,"662,600",53.74
"Nov 8, 2006",67.52,67.88,67.20,67.27,"669,500",54.10
"Nov 7, 2006",68.12,68.50,67.91,68.14,"596,900",54.41
"Nov 6, 2006",67.45,68.22,67.35,67.89,"765,600",54.21
"Nov 3, 2006",67.76,68.34,67.22,67.35,"773,600",53.78
"Nov 2, 2006",67.32,68.29,67.32,67.97,"741,000",54.28
"Nov 1, 2006",68.27,69.11,67.81,67.81,"920,400",54.15
"Oct 31, 2006",68.75,69.29,68.24,68.40,"827,800",54.62
"Oct 30, 2006",68.18,69.19,68.05,68.96,"740,800",55.07
"Oct 27, 2006",68.50,68.50,67.88,68.15,"886,000",54.42
"Oct 26, 2006",69.13,69.13,68.26,68.71,"578,500",54.87
"Oct 25, 2006",69.07,69.10,68.24,68.67,"563,400",54.84
"Oct 24, 2006",69.20,69.80,68.65,68.82,"972,900",54.96
"Oct 23, 2006",68.34,69.33,68.34,69.28,"773,300",55.32
"Oct 20, 2006",68.04,68.35,67.40,68.27,"961,300",54.52
"Oct 19, 2006",68.00,68.01,67.27,67.71,"1,212,600",54.07
"Oct 18, 2006",69.40,69.69,68.28,68.46,"723,200",54.67
"Oct 17, 2006",69.13,69.14,68.34,69.00,"639,300",55.10
"Oct 16, 2006",68.28,69.47,68.28,69.25,"725,200",55.30
"Oct 13, 2006",68.66,68.79,68.35,68.58,"364,700",54.77
"Oct 12, 2006",68.45,68.82,68.30,68.79,"600,300",54.93
"Oct 11, 2006",67.61,68.35,67.35,68.30,"670,000",54.54
"Oct 10, 2006",67.77,67.88,66.86,67.67,"605,300",54.04
"Oct 9, 2006",67.45,68.14,67.45,67.82,"379,700",54.16
"Oct 6, 2006",67.00,67.74,66.93,67.70,"499,700",54.06
"Oct 5, 2006",67.00,67.50,66.91,67.42,"593,800",53.84
"Oct 4, 2006",66.40,67.34,66.21,67.11,"706,700",53.59
"Oct 3, 2006",66.46,67.04,66.20,66.69,"669,000",53.26
"Oct 2, 2006",67.31,67.32,66.40,66.94,"503,600",53.46
"Sep 29, 2006",67.23,68.03,67.07,67.08,"870,800",53.57
"Sep 28, 2006",67.45,68.22,67.18,68.09,"1,012,100",54.37
"Sep 27, 2006",67.53,67.77,67.20,67.32,"859,000",53.76
"Sep 26, 2006",66.81,67.88,66.81,67.78,"962,600",54.13
"Sep 25, 2006",66.20,66.92,66.01,66.80,"837,600",53.34
"Sep 22, 2006",66.48,66.62,65.85,66.12,"577,900",52.80
"Sep 21, 2006",67.86,67.86,66.35,66.60,"894,900",53.18
"Sep 20, 2006",66.66,67.55,66.47,67.45,"847,400",53.86
"Sep 19, 2006",66.08,66.34,65.76,66.26,"591,800",52.91
"Sep 18, 2006",66.19,66.68,65.62,66.21,"546,400",52.87
"Sep 15, 2006",66.40,66.75,65.90,66.00,"953,800",52.70
"Sep 14, 2006",65.90,66.26,65.40,66.12,"874,000",52.80
"Sep 13, 2006",65.84,66.86,65.54,66.35,"907,600",52.98
"Sep 12, 2006",64.75,65.91,64.62,65.84,"1,209,500",52.58
"Sep 11, 2006",64.75,64.88,64.24,64.75,"1,213,000",51.71
"Sep 8, 2006",63.96,65.00,63.92,64.93,"886,700",51.85
"Sep 7, 2006",63.72,64.36,63.49,63.96,"975,300",51.08
"Sep 6, 2006",63.95,64.20,63.66,63.82,"945,900",50.96
"Sep 5, 2006",64.33,64.34,63.69,64.12,"740,900",51.20
"Sep 1, 2006",63.70,64.53,63.52,64.36,"560,100",51.40
"Aug 31, 2006",63.18,63.69,62.95,63.36,"446,600",50.60
"Aug 30, 2006",62.90,63.38,62.86,63.00,"298,600",50.31
"Aug 29, 2006",63.07,63.17,62.19,63.02,"557,300",50.33
"Aug 28, 2006",62.68,63.07,62.44,62.93,"472,200",50.25
"Aug 25, 2006",62.31,62.83,62.31,62.56,"300,900",49.96
"Aug 24, 2006",63.25,63.36,62.34,62.75,"318,400",50.11
"Aug 23, 2006",63.39,63.39,62.67,63.05,"362,500",50.35
"Aug 22, 2006",63.86,64.00,63.15,63.34,"514,100",50.58
"Aug 21, 2006",63.51,63.88,63.46,63.74,"425,000",50.90
"Aug 18, 2006",64.09,64.26,63.65,63.69,"582,900",50.86
"Aug 17, 2006",64.93,64.93,63.69,63.76,"916,700",50.92
"Aug 16, 2006",63.80,64.60,63.66,64.60,"689,200",51.59
"Aug 15, 2006",62.50,63.30,62.20,63.23,"514,400",50.49
"Aug 14, 2006",60.42,62.70,60.42,61.93,"379,200",49.45
"Aug 11, 2006",61.60,62.09,61.24,61.32,"383,200",48.97
"Aug 10, 2006",61.79,62.05,61.29,61.97,"693,800",49.49
"Aug 9, 2006",62.19,62.45,61.71,61.75,"714,800",49.31
"Aug 8, 2006",62.54,63.00,61.98,61.99,"675,600",49.50
"Aug 7, 2006",62.61,62.99,62.17,62.82,"465,000",49.78
"Aug 4, 2006",62.64,63.36,62.45,62.60,"727,600",49.61
"Aug 3, 2006",61.37,63.00,61.37,62.59,"602,500",49.60
"Aug 2, 2006",61.54,62.46,61.38,62.00,"837,600",49.13
"Aug 1, 2006",61.54,61.54,60.71,61.14,"644,100",48.45
"Jul 31, 2006",61.80,61.90,61.25,61.54,"720,800",48.77
"Jul 28, 2006",61.30,62.17,61.30,62.02,"806,400",49.15
"Jul 27, 2006",62.61,62.64,61.08,61.30,"1,416,300",48.58
"Jul 26, 2006",63.21,63.34,62.43,62.60,"1,132,300",49.61
"Jul 25, 2006",63.02,63.44,62.19,63.36,"1,125,900",50.21
"Jul 24, 2006",62.65,63.10,62.12,63.02,"1,037,900",49.94
"Jul 21, 2006",64.29,64.29,61.83,62.01,"1,193,200",49.14
"Jul 20, 2006",65.04,65.53,64.07,64.19,"796,700",50.87
"Jul 19, 2006",64.07,65.40,63.90,65.29,"967,300",51.74
"Jul 18, 2006",63.32,63.69,62.67,63.47,"525,700",50.30
"Jul 17, 2006",62.75,63.67,62.73,63.29,"855,800",50.15
"Jul 14, 2006",63.39,63.39,62.34,63.07,"891,200",49.98
"Jul 13, 2006",65.10,65.38,63.35,63.38,"1,234,000",50.23
"Jul 12, 2006",66.64,66.91,65.57,65.63,"552,800",52.01
"Jul 11, 2006",66.59,66.81,66.37,66.59,"870,200",52.77
"Jul 10, 2006",65.45,66.57,65.25,66.49,"704,800",52.69
"Jul 7, 2006",65.13,65.71,64.83,65.05,"673,500",51.55
"Jul 6, 2006",65.71,66.02,64.91,65.38,"652,800",51.81
"Jul 5, 2006",66.33,66.34,65.57,65.85,"549,800",52.18
"Jul 3, 2006",66.35,66.49,66.06,66.32,"264,600",52.56
"Jun 30, 2006",65.60,66.15,65.25,66.00,"886,700",52.30
"Jun 29, 2006",64.30,65.34,64.09,65.31,"771,000",51.76
"Jun 28, 2006",63.59,63.77,63.08,63.67,"468,200",50.46
"Jun 27, 2006",65.05,65.22,63.43,63.59,"756,800",50.39
"Jun 26, 2006",64.45,65.21,64.42,65.15,"476,100",51.63
"Jun 23, 2006",63.72,65.02,63.62,64.22,"679,700",50.89
"Jun 22, 2006",63.68,64.04,63.12,63.97,"618,500",50.69
"Jun 21, 2006",63.12,63.94,62.93,63.48,"938,200",50.31
"Jun 20, 2006",63.10,63.54,62.83,63.02,"776,900",49.94
"Jun 19, 2006",64.81,64.89,62.80,63.10,"1,258,200",50.00
"Jun 16, 2006",64.82,65.14,64.29,64.74,"817,200",51.30
"Jun 15, 2006",63.60,65.31,63.54,65.15,"932,300",51.63
"Jun 14, 2006",62.50,63.42,62.43,63.40,"821,100",50.24
"Jun 13, 2006",62.95,63.68,62.38,62.73,"1,039,300",49.71
"Jun 12, 2006",63.91,64.50,63.29,63.42,"799,100",50.26
"Jun 9, 2006",63.90,64.13,63.21,63.81,"691,700",50.57
"Jun 8, 2006",63.38,64.30,61.56,64.15,"1,654,000",50.84
"Jun 7, 2006",62.00,64.76,61.54,64.02,"1,032,900",50.73
"Jun 6, 2006",65.50,65.50,63.89,64.51,"1,359,200",51.12
"Jun 5, 2006",64.96,64.97,63.86,64.16,"807,000",50.84
"Jun 2, 2006",65.21,65.38,64.56,65.21,"563,200",51.68
"Jun 1, 2006",64.03,64.96,63.63,64.96,"593,400",51.48
"May 31, 2006",64.18,64.94,63.75,64.34,"639,700",50.99
"May 30, 2006",64.50,64.59,63.54,63.95,"712,600",50.68
"May 26, 2006",64.98,65.10,64.47,64.95,"491,300",51.47
"May 25, 2006",64.88,65.20,64.37,64.60,"668,700",51.19
"May 24, 2006",64.37,64.75,63.34,64.39,"1,147,000",51.03
"May 23, 2006",64.65,65.24,64.26,64.37,"950,500",51.01
"May 22, 2006",65.35,65.36,62.88,64.32,"1,242,800",50.97
"May 19, 2006",65.93,65.93,64.93,65.45,"907,600",51.87
"May 18, 2006",65.99,66.38,64.53,65.22,"694,800",51.68
"May 17, 2006",66.57,66.87,65.50,65.80,"999,300",52.14
"May 16, 2006",67.07,67.27,66.19,67.07,"697,800",53.15
"May 15, 2006",67.29,67.29,65.96,66.67,"816,000",52.83
"May 12, 2006",68.35,68.36,67.13,67.30,"897,100",53.33
"May 11, 2006",68.62,68.76,68.15,68.36,"693,800",54.17
"May 10, 2006",68.35,68.61,67.93,68.47,"888,200",54.26
"May 9, 2006",68.00,68.36,67.80,68.31,"529,300",54.13
"May 8, 2006",68.05,68.40,68.05,68.20,"813,400",54.05
"May 5, 2006",68.17,68.31,67.97,68.28,"1,075,700",53.73
"May 4, 2006",68.35,68.88,67.98,68.07,"956,100",53.56
"May 3, 2006",67.89,68.50,67.75,68.35,"945,100",53.78
"May 2, 2006",67.19,68.08,66.98,67.89,"1,008,000",53.42
"May 1, 2006",67.55,67.95,67.19,67.19,"1,066,100",52.87
"Apr 28, 2006",67.29,67.54,66.84,67.12,"1,175,500",52.82
"Apr 27, 2006",66.91,68.05,66.67,67.30,"1,025,300",52.96
"Apr 26, 2006",67.23,67.69,67.13,67.37,"1,614,000",53.01
"Apr 25, 2006",66.69,67.25,66.38,67.09,"1,496,400",52.79
"Apr 24, 2006",66.22,66.83,65.57,66.69,"1,214,900",52.48
"Apr 21, 2006",66.38,67.18,66.28,66.60,"1,883,600",52.41
